# FNIRS session start 2025-08-10T09:53:07.457161
# columns: t_rel, sr, nr, red_mean, red_std, red_min, red_max, ir_mean, ir_std, ir_min, ir_max
0.000,0.000,0.000,0.000000,0.000000,0.000000,0.000000,0.000000,0.000000,0.000000,0.000000
0.000,0.000,0.000,0.000000,0.000000,0.000000,0.000000,0.000000,0.000000,0.000000,0.000000
0.976,767.606,30.824,46352.176166,24475.214955,384.000000,65535.000000,37842.305699,27676.520279,61.000000,65535.000000
2.038,762.696,31.073,46296.262326,24358.825241,384.000000,65535.000000,37627.823641,27587.900176,61.000000,65535.000000
3.065,799.018,31.143,46441.213899,24355.764242,384.000000,65535.000000,38039.809821,27647.029693,61.000000,65535.000000
4.076,787.432,30.666,46456.894342,24350.788350,384.000000,65535.000000,38255.816505,27671.683471,61.000000,65535.000000
5.103,810.868,32.123,46433.406498,24374.437525,384.000000,65535.000000,38322.493304,27695.432945,61.000000,65535.000000
6.123,793.680,31.394,46407.157199,24403.205374,384.000000,65535.000000,38318.688701,27703.660410,61.000000,65535.000000
7.140,696.122,29.497,46271.763741,24473.688124,384.000000,65535.000000,38054.910615,27703.806048,61.000000,65535.000000
8.169,792.456,32.048,46262.839749,24491.466685,384.000000,65535.000000,38003.365436,27694.987898,61.000000,65535.000000
9.184,800.440,31.544,46282.241884,24493.617444,384.000000,65535.000000,38036.087920,27691.678130,61.000000,65535.000000
10.194,776.059,30.686,46322.424193,24499.465034,384.000000,65535.000000,38080.009295,27704.690721,61.000000,65535.000000
11.241,781.110,30.557,46367.869803,24486.093808,0.000000,65535.000000,38144.320310,27711.494079,61.000000,65535.000000
12.298,784.198,31.217,46376.259263,24482.829692,0.000000,65535.000000,38145.223980,27716.418166,61.000000,65535.000000
13.368,800.565,31.798,46389.274847,24475.336074,0.000000,65535.000000,38143.881976,27710.165041,61.000000,65535.000000
14.389,773.438,30.350,46423.084503,24467.836872,0.000000,65535.000000,38155.478674,27701.643701,61.000000,65535.000000
15.432,799.494,31.635,46437.092902,24469.016754,0.000000,65535.000000,38157.859944,27701.322190,61.000000,65535.000000
16.459,797.433,31.157,46459.342450,24464.429506,0.000000,65535.000000,38198.617882,27701.913016,61.000000,65535.000000
17.509,780.359,30.490,46480.673394,24452.748887,0.000000,65535.000000,38228.701370,27698.009536,61.000000,65535.000000
18.542,817.740,31.935,46495.723698,24444.686727,0.000000,65535.000000,38255.208702,27698.507009,61.000000,65535.000000
19.593,799.663,31.415,46492.586659,24443.877751,0.000000,65535.000000,38254.313867,27693.771307,61.000000,65535.000000
20.681,764.308,30.315,46498.069876,24446.877778,0.000000,65535.000000,38242.525457,27691.100661,61.000000,65535.000000
21.700,805.980,31.415,46495.911861,24437.104361,0.000000,65535.000000,38263.471753,27689.139115,61.000000,65535.000000
22.713,803.454,31.585,46506.610079,24428.806951,0.000000,65535.000000,38273.149346,27689.258615,61.000000,65535.000000
23.747,789.744,30.932,46512.381118,24426.655392,0.000000,65535.000000,38288.386681,27691.061384,61.000000,65535.000000
24.771,745.263,30.279,46503.745452,24436.377645,0.000000,65535.000000,38260.528626,27697.385886,61.000000,65535.000000
25.803,798.284,31.970,46495.892368,24441.427419,0.000000,65535.000000,38253.046741,27706.424181,61.000000,65535.000000
26.818,786.908,30.569,46508.341224,24431.536772,0.000000,65535.000000,38274.225380,27705.185152,61.000000,65535.000000
27.851,785.833,30.969,46509.811392,24427.795786,0.000000,65535.000000,38282.257172,27709.633861,61.000000,65535.000000
28.912,798.127,31.096,46530.208672,24421.062505,0.000000,65535.000000,38299.577598,27708.384568,61.000000,65535.000000
29.944,780.789,30.999,46530.032788,24423.473519,0.000000,65535.000000,38290.179486,27706.124530,61.000000,65535.000000
31.012,770.627,30.900,46526.123235,24426.375568,0.000000,65535.000000,38276.556714,27708.773019,61.000000,65535.000000
32.081,810.415,31.818,46540.422446,24422.686126,0.000000,65535.000000,38280.655822,27706.619462,61.000000,65535.000000
33.092,790.866,31.635,46543.449604,24429.029968,0.000000,65535.000000,38272.630406,27709.390030,61.000000,65535.000000
34.131,671.194,29.852,46493.810669,24437.916802,0.000000,65535.000000,38177.951031,27707.580228,61.000000,65535.000000
35.216,792.635,31.337,46505.529303,24430.354998,0.000000,65535.000000,38185.250480,27708.931082,61.000000,65535.000000
36.231,785.244,31.528,46492.354551,24428.068034,0.000000,65535.000000,38178.829435,27710.197592,61.000000,65535.000000
37.257,770.505,31.171,46465.259844,24433.602959,0.000000,65535.000000,38165.149285,27713.046854,61.000000,65535.000000
38.309,742.619,30.427,46443.019025,24438.884058,0.000000,65535.000000,38139.785648,27712.479472,61.000000,65535.000000
39.357,787.973,31.481,46423.544761,24441.986757,0.000000,65535.000000,38135.353440,27712.949248,61.000000,65535.000000
40.378,800.776,31.365,46414.915704,24439.996248,0.000000,65535.000000,38156.529538,27715.877350,61.000000,65535.000000
41.415,774.115,30.849,46398.221101,24439.527365,0.000000,65535.000000,38154.932883,27715.134550,61.000000,65535.000000
42.444,789.470,31.112,46396.211873,24432.001130,0.000000,65535.000000,38163.407339,27712.418508,61.000000,65535.000000
43.457,765.879,31.583,46377.179414,24436.976626,0.000000,65535.000000,38141.053156,27713.090354,61.000000,65535.000000
44.488,766.263,31.039,46349.884861,24438.231786,0.000000,65535.000000,38126.499138,27711.965490,61.000000,65535.000000
45.536,740.170,30.522,46324.033605,24443.773508,0.000000,65535.000000,38106.398060,27714.287922,61.000000,65535.000000
46.567,773.220,32.015,46295.400996,24448.138109,0.000000,65535.000000,38084.287923,27715.560611,61.000000,65535.000000
47.621,758.105,31.311,46272.457450,24448.405473,0.000000,65535.000000,38063.429433,27715.570204,61.000000,65535.000000
48.627,765.109,29.809,46263.440173,24448.385427,0.000000,65535.000000,38077.349233,27714.310008,61.000000,65535.000000
49.669,774.651,31.677,46237.936643,24454.810361,0.000000,65535.000000,38063.056025,27714.078163,61.000000,65535.000000
50.713,771.334,31.620,46212.035510,24462.146305,0.000000,65535.000000,38045.476554,27712.643433,61.000000,65535.000000
51.747,739.636,29.972,46192.662680,24469.799386,0.000000,65535.000000,38032.738183,27712.816217,61.000000,65535.000000
52.794,795.430,31.512,46175.317532,24474.854840,0.000000,65535.000000,38040.207434,27714.442992,61.000000,65535.000000
53.827,815.603,31.965,46168.544261,24475.367604,0.000000,65535.000000,38046.889966,27712.941441,61.000000,65535.000000
54.871,759.258,29.681,46161.370391,24471.968442,0.000000,65535.000000,38056.585139,27712.054586,61.000000,65535.000000
55.910,775.372,31.746,46138.573812,24476.272699,0.000000,65535.000000,38044.403768,27711.887682,61.000000,65535.000000
56.949,794.506,31.780,46131.541732,24477.478503,0.000000,65535.000000,38045.586956,27713.396133,61.000000,65535.000000
57.994,757.537,30.608,46115.642652,24480.336396,0.000000,65535.000000,38038.723171,27714.289687,61.000000,65535.000000
59.029,763.350,30.921,46104.935543,24482.013188,0.000000,65535.000000,38032.274922,27715.219524,61.000000,65535.000000
60.072,811.579,31.657,46102.671599,24481.672199,0.000000,65535.000000,38049.420414,27715.183071,61.000000,65535.000000
61.117,772.267,30.623,46092.658165,24488.802820,0.000000,65535.000000,38054.161975,27715.632787,61.000000,65535.000000
62.163,797.396,31.552,46084.243383,24489.886908,0.000000,65535.000000,38057.079986,27714.558037,61.000000,65535.000000
63.214,791.629,31.399,46070.926171,24492.141250,0.000000,65535.000000,38057.896436,27714.288970,61.000000,65535.000000
64.251,773.412,30.859,46056.116200,24494.920633,0.000000,65535.000000,38057.734540,27714.883240,61.000000,65535.000000
65.294,715.095,29.716,46032.255560,24502.904930,0.000000,65535.000000,38051.825260,27716.410099,61.000000,65535.000000
66.341,800.183,32.466,46006.298940,24508.072297,0.000000,65535.000000,38053.479540,27717.968016,61.000000,65535.000000
67.389,776.707,31.488,45980.527300,24511.641144,0.000000,65535.000000,38027.261200,27716.475849,61.000000,65535.000000
68.438,773.426,30.517,45972.317000,24513.388523,0.000000,65535.000000,38019.333720,27716.635954,61.000000,65535.000000
69.480,728.901,29.732,45949.111920,24516.282827,0.000000,65535.000000,37998.664540,27714.797266,61.000000,65535.000000
70.532,847.352,33.285,45942.065240,24510.258383,0.000000,65535.000000,38006.558400,27711.961263,61.000000,65535.000000
71.582,747.595,30.475,45940.523580,24499.453895,0.000000,65535.000000,38024.820320,27711.021808,61.000000,65535.000000
72.614,788.411,30.994,45921.838820,24505.118560,0.000000,65535.000000,38040.477860,27709.314209,61.000000,65535.000000
73.657,789.235,31.646,45912.569680,24500.420796,0.000000,65535.000000,38037.077160,27709.349356,61.000000,65535.000000
74.691,761.876,29.972,45894.554940,24499.592320,0.000000,65535.000000,38031.452140,27706.965404,61.000000,65535.000000
75.733,785.320,31.682,45870.945980,24502.587763,0.000000,65535.000000,38011.926900,27706.602607,61.000000,65535.000000
76.779,788.840,31.554,45870.448680,24498.894929,0.000000,65535.000000,38019.878500,27706.272610,61.000000,65535.000000
77.831,760.658,30.426,45858.915120,24498.846943,0.000000,65535.000000,38017.889580,27707.452795,61.000000,65535.000000
78.868,754.826,29.885,45819.243320,24511.420419,0.000000,65535.000000,38020.914800,27705.423710,61.000000,65535.000000
79.915,653.162,27.693,45805.377620,24499.665866,0.000000,65535.000000,38034.554180,27670.641203,61.000000,65535.000000
80.968,628.673,30.389,45813.213220,24442.255100,0.000000,65535.000000,37949.074440,27636.268635,0.000000,65535.000000
82.021,107.358,4.750,45816.277340,24434.727379,0.000000,65535.000000,37932.680140,27631.856627,0.000000,65535.000000
83.069,0.000,0.000,45816.277340,24434.727379,0.000000,65535.000000,37932.680140,27631.856627,0.000000,65535.000000
84.109,0.000,0.000,45816.277340,24434.727379,0.000000,65535.000000,37932.680140,27631.856627,0.000000,65535.000000
85.154,0.000,0.000,45816.277340,24434.727379,0.000000,65535.000000,37932.680140,27631.856627,0.000000,65535.000000
86.202,0.000,0.000,45816.277340,24434.727379,0.000000,65535.000000,37932.680140,27631.856627,0.000000,65535.000000
87.245,0.000,0.000,45816.277340,24434.727379,0.000000,65535.000000,37932.680140,27631.856627,0.000000,65535.000000
88.246,0.000,0.000,45816.277340,24434.727379,0.000000,65535.000000,37932.680140,27631.856627,0.000000,65535.000000
89.287,0.000,0.000,45816.277340,24434.727379,0.000000,65535.000000,37932.680140,27631.856627,0.000000,65535.000000
90.334,0.000,0.000,45816.277340,24434.727379,0.000000,65535.000000,37932.680140,27631.856627,0.000000,65535.000000
91.376,0.000,0.000,45816.277340,24434.727379,0.000000,65535.000000,37932.680140,27631.856627,0.000000,65535.000000
92.421,0.000,0.000,45816.277340,24434.727379,0.000000,65535.000000,37932.680140,27631.856627,0.000000,65535.000000
93.465,0.000,0.000,45816.277340,24434.727379,0.000000,65535.000000,37932.680140,27631.856627,0.000000,65535.000000
94.500,0.000,0.000,45816.277340,24434.727379,0.000000,65535.000000,37932.680140,27631.856627,0.000000,65535.000000
95.554,0.000,0.000,45816.277340,24434.727379,0.000000,65535.000000,37932.680140,27631.856627,0.000000,65535.000000
96.600,0.000,0.000,45816.277340,24434.727379,0.000000,65535.000000,37932.680140,27631.856627,0.000000,65535.000000
97.648,0.000,0.000,45816.277340,24434.727379,0.000000,65535.000000,37932.680140,27631.856627,0.000000,65535.000000
98.695,0.000,0.000,45816.277340,24434.727379,0.000000,65535.000000,37932.680140,27631.856627,0.000000,65535.000000
99.737,0.000,0.000,45816.277340,24434.727379,0.000000,65535.000000,37932.680140,27631.856627,0.000000,65535.000000
100.789,0.000,0.000,45816.277340,24434.727379,0.000000,65535.000000,37932.680140,27631.856627,0.000000,65535.000000
101.837,0.000,0.000,45816.277340,24434.727379,0.000000,65535.000000,37932.680140,27631.856627,0.000000,65535.000000
102.885,0.000,0.000,45816.277340,24434.727379,0.000000,65535.000000,37932.680140,27631.856627,0.000000,65535.000000
103.923,0.000,0.000,45816.277340,24434.727379,0.000000,65535.000000,37932.680140,27631.856627,0.000000,65535.000000
104.965,0.000,0.000,45816.277340,24434.727379,0.000000,65535.000000,37932.680140,27631.856627,0.000000,65535.000000
105.967,0.000,0.000,45816.277340,24434.727379,0.000000,65535.000000,37932.680140,27631.856627,0.000000,65535.000000
106.967,0.000,0.000,45816.277340,24434.727379,0.000000,65535.000000,37932.680140,27631.856627,0.000000,65535.000000
107.969,0.000,0.000,45816.277340,24434.727379,0.000000,65535.000000,37932.680140,27631.856627,0.000000,65535.000000
109.015,0.000,0.000,45816.277340,24434.727379,0.000000,65535.000000,37932.680140,27631.856627,0.000000,65535.000000
110.062,0.000,0.000,45816.277340,24434.727379,0.000000,65535.000000,37932.680140,27631.856627,0.000000,65535.000000
111.107,0.000,0.000,45816.277340,24434.727379,0.000000,65535.000000,37932.680140,27631.856627,0.000000,65535.000000
112.145,0.000,0.000,45816.277340,24434.727379,0.000000,65535.000000,37932.680140,27631.856627,0.000000,65535.000000
113.196,0.000,0.000,45816.277340,24434.727379,0.000000,65535.000000,37932.680140,27631.856627,0.000000,65535.000000
114.229,0.000,0.000,45816.277340,24434.727379,0.000000,65535.000000,37932.680140,27631.856627,0.000000,65535.000000
115.269,0.000,0.000,45816.277340,24434.727379,0.000000,65535.000000,37932.680140,27631.856627,0.000000,65535.000000
116.319,0.000,0.000,45816.277340,24434.727379,0.000000,65535.000000,37932.680140,27631.856627,0.000000,65535.000000
117.363,0.000,0.000,45816.277340,24434.727379,0.000000,65535.000000,37932.680140,27631.856627,0.000000,65535.000000
118.404,0.000,0.000,45816.277340,24434.727379,0.000000,65535.000000,37932.680140,27631.856627,0.000000,65535.000000
119.438,0.000,0.000,45816.277340,24434.727379,0.000000,65535.000000,37932.680140,27631.856627,0.000000,65535.000000
120.482,0.000,0.000,45816.277340,24434.727379,0.000000,65535.000000,37932.680140,27631.856627,0.000000,65535.000000
121.525,0.000,0.000,45816.277340,24434.727379,0.000000,65535.000000,37932.680140,27631.856627,0.000000,65535.000000
122.570,0.000,0.000,45816.277340,24434.727379,0.000000,65535.000000,37932.680140,27631.856627,0.000000,65535.000000
123.617,0.000,0.000,45816.277340,24434.727379,0.000000,65535.000000,37932.680140,27631.856627,0.000000,65535.000000
124.655,0.000,0.000,45816.277340,24434.727379,0.000000,65535.000000,37932.680140,27631.856627,0.000000,65535.000000
125.702,0.000,0.000,45816.277340,24434.727379,0.000000,65535.000000,37932.680140,27631.856627,0.000000,65535.000000
126.744,0.000,0.000,45816.277340,24434.727379,0.000000,65535.000000,37932.680140,27631.856627,0.000000,65535.000000
127.788,0.000,0.000,45816.277340,24434.727379,0.000000,65535.000000,37932.680140,27631.856627,0.000000,65535.000000
128.819,0.000,0.000,45816.277340,24434.727379,0.000000,65535.000000,37932.680140,27631.856627,0.000000,65535.000000
129.859,0.000,0.000,45816.277340,24434.727379,0.000000,65535.000000,37932.680140,27631.856627,0.000000,65535.000000
130.904,0.000,0.000,45816.277340,24434.727379,0.000000,65535.000000,37932.680140,27631.856627,0.000000,65535.000000
131.944,0.000,0.000,45816.277340,24434.727379,0.000000,65535.000000,37932.680140,27631.856627,0.000000,65535.000000
132.971,0.000,0.000,45816.277340,24434.727379,0.000000,65535.000000,37932.680140,27631.856627,0.000000,65535.000000
133.999,0.000,0.000,45816.277340,24434.727379,0.000000,65535.000000,37932.680140,27631.856627,0.000000,65535.000000
135.043,0.000,0.000,45816.277340,24434.727379,0.000000,65535.000000,37932.680140,27631.856627,0.000000,65535.000000
136.089,0.000,0.000,45816.277340,24434.727379,0.000000,65535.000000,37932.680140,27631.856627,0.000000,65535.000000
137.136,0.000,0.000,45816.277340,24434.727379,0.000000,65535.000000,37932.680140,27631.856627,0.000000,65535.000000
138.188,0.000,0.000,45816.277340,24434.727379,0.000000,65535.000000,37932.680140,27631.856627,0.000000,65535.000000
139.237,0.000,0.000,45816.277340,24434.727379,0.000000,65535.000000,37932.680140,27631.856627,0.000000,65535.000000
140.287,0.000,0.000,45816.277340,24434.727379,0.000000,65535.000000,37932.680140,27631.856627,0.000000,65535.000000
141.287,0.000,0.000,45816.277340,24434.727379,0.000000,65535.000000,37932.680140,27631.856627,0.000000,65535.000000
142.338,0.000,0.000,45816.277340,24434.727379,0.000000,65535.000000,37932.680140,27631.856627,0.000000,65535.000000
143.392,0.000,0.000,45816.277340,24434.727379,0.000000,65535.000000,37932.680140,27631.856627,0.000000,65535.000000
144.434,0.000,0.000,45816.277340,24434.727379,0.000000,65535.000000,37932.680140,27631.856627,0.000000,65535.000000
145.438,0.000,0.000,45816.277340,24434.727379,0.000000,65535.000000,37932.680140,27631.856627,0.000000,65535.000000
146.440,0.000,0.000,45816.277340,24434.727379,0.000000,65535.000000,37932.680140,27631.856627,0.000000,65535.000000
147.488,0.000,0.000,45816.277340,24434.727379,0.000000,65535.000000,37932.680140,27631.856627,0.000000,65535.000000
148.489,0.000,0.000,45816.277340,24434.727379,0.000000,65535.000000,37932.680140,27631.856627,0.000000,65535.000000
149.544,0.000,0.000,45816.277340,24434.727379,0.000000,65535.000000,37932.680140,27631.856627,0.000000,65535.000000
150.599,0.000,0.000,45816.277340,24434.727379,0.000000,65535.000000,37932.680140,27631.856627,0.000000,65535.000000
151.602,0.000,0.000,45816.277340,24434.727379,0.000000,65535.000000,37932.680140,27631.856627,0.000000,65535.000000
152.603,0.000,0.000,45816.277340,24434.727379,0.000000,65535.000000,37932.680140,27631.856627,0.000000,65535.000000
153.604,0.000,0.000,45816.277340,24434.727379,0.000000,65535.000000,37932.680140,27631.856627,0.000000,65535.000000
154.648,0.000,0.000,45816.277340,24434.727379,0.000000,65535.000000,37932.680140,27631.856627,0.000000,65535.000000
155.650,0.000,0.000,45816.277340,24434.727379,0.000000,65535.000000,37932.680140,27631.856627,0.000000,65535.000000
156.690,0.000,0.000,45816.277340,24434.727379,0.000000,65535.000000,37932.680140,27631.856627,0.000000,65535.000000
157.738,0.000,0.000,45816.277340,24434.727379,0.000000,65535.000000,37932.680140,27631.856627,0.000000,65535.000000
158.786,0.000,0.000,45816.277340,24434.727379,0.000000,65535.000000,37932.680140,27631.856627,0.000000,65535.000000
159.816,0.000,0.000,45816.277340,24434.727379,0.000000,65535.000000,37932.680140,27631.856627,0.000000,65535.000000
160.832,0.000,0.000,45816.277340,24434.727379,0.000000,65535.000000,37932.680140,27631.856627,0.000000,65535.000000
161.832,0.000,0.000,45816.277340,24434.727379,0.000000,65535.000000,37932.680140,27631.856627,0.000000,65535.000000
162.841,0.000,0.000,45816.277340,24434.727379,0.000000,65535.000000,37932.680140,27631.856627,0.000000,65535.000000
163.891,0.000,0.000,45816.277340,24434.727379,0.000000,65535.000000,37932.680140,27631.856627,0.000000,65535.000000
164.961,0.000,0.000,45816.277340,24434.727379,0.000000,65535.000000,37932.680140,27631.856627,0.000000,65535.000000
166.004,0.000,0.000,45816.277340,24434.727379,0.000000,65535.000000,37932.680140,27631.856627,0.000000,65535.000000
167.010,0.000,0.000,45816.277340,24434.727379,0.000000,65535.000000,37932.680140,27631.856627,0.000000,65535.000000
168.059,0.000,0.000,45816.277340,24434.727379,0.000000,65535.000000,37932.680140,27631.856627,0.000000,65535.000000
169.095,0.000,0.000,45816.277340,24434.727379,0.000000,65535.000000,37932.680140,27631.856627,0.000000,65535.000000
170.101,0.000,0.000,45816.277340,24434.727379,0.000000,65535.000000,37932.680140,27631.856627,0.000000,65535.000000
171.109,0.000,0.000,45816.277340,24434.727379,0.000000,65535.000000,37932.680140,27631.856627,0.000000,65535.000000
172.111,0.000,0.000,45816.277340,24434.727379,0.000000,65535.000000,37932.680140,27631.856627,0.000000,65535.000000
173.130,0.000,0.000,45816.277340,24434.727379,0.000000,65535.000000,37932.680140,27631.856627,0.000000,65535.000000
174.141,0.000,0.000,45816.277340,24434.727379,0.000000,65535.000000,37932.680140,27631.856627,0.000000,65535.000000
175.194,0.000,0.000,45816.277340,24434.727379,0.000000,65535.000000,37932.680140,27631.856627,0.000000,65535.000000
176.199,0.000,0.000,45816.277340,24434.727379,0.000000,65535.000000,37932.680140,27631.856627,0.000000,65535.000000
177.207,0.000,0.000,45816.277340,24434.727379,0.000000,65535.000000,37932.680140,27631.856627,0.000000,65535.000000
178.222,0.000,0.000,45816.277340,24434.727379,0.000000,65535.000000,37932.680140,27631.856627,0.000000,65535.000000
179.277,0.000,0.000,45816.277340,24434.727379,0.000000,65535.000000,37932.680140,27631.856627,0.000000,65535.000000
180.299,0.000,0.000,45816.277340,24434.727379,0.000000,65535.000000,37932.680140,27631.856627,0.000000,65535.000000
181.312,0.000,0.000,45816.277340,24434.727379,0.000000,65535.000000,37932.680140,27631.856627,0.000000,65535.000000
182.320,0.000,0.000,45816.277340,24434.727379,0.000000,65535.000000,37932.680140,27631.856627,0.000000,65535.000000
183.342,0.000,0.000,45816.277340,24434.727379,0.000000,65535.000000,37932.680140,27631.856627,0.000000,65535.000000
184.394,0.000,0.000,45816.277340,24434.727379,0.000000,65535.000000,37932.680140,27631.856627,0.000000,65535.000000
185.394,0.000,0.000,45816.277340,24434.727379,0.000000,65535.000000,37932.680140,27631.856627,0.000000,65535.000000
186.397,0.000,0.000,45816.277340,24434.727379,0.000000,65535.000000,37932.680140,27631.856627,0.000000,65535.000000
187.399,0.000,0.000,45816.277340,24434.727379,0.000000,65535.000000,37932.680140,27631.856627,0.000000,65535.000000
188.404,0.000,0.000,45816.277340,24434.727379,0.000000,65535.000000,37932.680140,27631.856627,0.000000,65535.000000
189.459,0.000,0.000,45816.277340,24434.727379,0.000000,65535.000000,37932.680140,27631.856627,0.000000,65535.000000
190.464,0.000,0.000,45816.277340,24434.727379,0.000000,65535.000000,37932.680140,27631.856627,0.000000,65535.000000
191.471,0.000,0.000,45816.277340,24434.727379,0.000000,65535.000000,37932.680140,27631.856627,0.000000,65535.000000
192.476,0.000,0.000,45816.277340,24434.727379,0.000000,65535.000000,37932.680140,27631.856627,0.000000,65535.000000
193.526,0.000,0.000,45816.277340,24434.727379,0.000000,65535.000000,37932.680140,27631.856627,0.000000,65535.000000
194.531,0.000,0.000,45816.277340,24434.727379,0.000000,65535.000000,37932.680140,27631.856627,0.000000,65535.000000
195.538,0.000,0.000,45816.277340,24434.727379,0.000000,65535.000000,37932.680140,27631.856627,0.000000,65535.000000
196.557,0.000,0.000,45816.277340,24434.727379,0.000000,65535.000000,37932.680140,27631.856627,0.000000,65535.000000
197.569,0.000,0.000,45816.277340,24434.727379,0.000000,65535.000000,37932.680140,27631.856627,0.000000,65535.000000
198.586,0.000,0.000,45816.277340,24434.727379,0.000000,65535.000000,37932.680140,27631.856627,0.000000,65535.000000
199.588,0.000,0.000,45816.277340,24434.727379,0.000000,65535.000000,37932.680140,27631.856627,0.000000,65535.000000
200.598,0.000,0.000,45816.277340,24434.727379,0.000000,65535.000000,37932.680140,27631.856627,0.000000,65535.000000
201.614,0.000,0.000,45816.277340,24434.727379,0.000000,65535.000000,37932.680140,27631.856627,0.000000,65535.000000
202.633,0.000,0.000,45816.277340,24434.727379,0.000000,65535.000000,37932.680140,27631.856627,0.000000,65535.000000
203.644,0.000,0.000,45816.277340,24434.727379,0.000000,65535.000000,37932.680140,27631.856627,0.000000,65535.000000
204.697,0.000,0.000,45816.277340,24434.727379,0.000000,65535.000000,37932.680140,27631.856627,0.000000,65535.000000
205.709,0.000,0.000,45816.277340,24434.727379,0.000000,65535.000000,37932.680140,27631.856627,0.000000,65535.000000
206.713,0.000,0.000,45816.277340,24434.727379,0.000000,65535.000000,37932.680140,27631.856627,0.000000,65535.000000
207.722,0.000,0.000,45816.277340,24434.727379,0.000000,65535.000000,37932.680140,27631.856627,0.000000,65535.000000
208.732,0.000,0.000,45816.277340,24434.727379,0.000000,65535.000000,37932.680140,27631.856627,0.000000,65535.000000
209.787,0.000,0.000,45816.277340,24434.727379,0.000000,65535.000000,37932.680140,27631.856627,0.000000,65535.000000
210.790,0.000,0.000,45816.277340,24434.727379,0.000000,65535.000000,37932.680140,27631.856627,0.000000,65535.000000
211.807,0.000,0.000,45816.277340,24434.727379,0.000000,65535.000000,37932.680140,27631.856627,0.000000,65535.000000
355.378,0.000,0.000,45816.277340,24434.727379,0.000000,65535.000000,37932.680140,27631.856627,0.000000,65535.000000
356.419,0.000,0.000,45816.277340,24434.727379,0.000000,65535.000000,37932.680140,27631.856627,0.000000,65535.000000
357.467,0.000,0.000,45816.277340,24434.727379,0.000000,65535.000000,37932.680140,27631.856627,0.000000,65535.000000
358.470,0.000,0.000,45816.277340,24434.727379,0.000000,65535.000000,37932.680140,27631.856627,0.000000,65535.000000
359.475,0.000,0.000,45816.277340,24434.727379,0.000000,65535.000000,37932.680140,27631.856627,0.000000,65535.000000
360.478,0.000,0.000,45816.277340,24434.727379,0.000000,65535.000000,37932.680140,27631.856627,0.000000,65535.000000
361.489,0.000,0.000,45816.277340,24434.727379,0.000000,65535.000000,37932.680140,27631.856627,0.000000,65535.000000
362.540,0.000,0.000,45816.277340,24434.727379,0.000000,65535.000000,37932.680140,27631.856627,0.000000,65535.000000
363.557,0.000,0.000,45816.277340,24434.727379,0.000000,65535.000000,37932.680140,27631.856627,0.000000,65535.000000
364.600,0.000,0.000,45816.277340,24434.727379,0.000000,65535.000000,37932.680140,27631.856627,0.000000,65535.000000
365.641,0.000,0.000,45816.277340,24434.727379,0.000000,65535.000000,37932.680140,27631.856627,0.000000,65535.000000
366.687,0.000,0.000,45816.277340,24434.727379,0.000000,65535.000000,37932.680140,27631.856627,0.000000,65535.000000
367.739,0.000,0.000,45816.277340,24434.727379,0.000000,65535.000000,37932.680140,27631.856627,0.000000,65535.000000
368.742,0.000,0.000,45816.277340,24434.727379,0.000000,65535.000000,37932.680140,27631.856627,0.000000,65535.000000
369.791,0.000,0.000,45816.277340,24434.727379,0.000000,65535.000000,37932.680140,27631.856627,0.000000,65535.000000
370.846,0.000,0.000,45816.277340,24434.727379,0.000000,65535.000000,37932.680140,27631.856627,0.000000,65535.000000
371.900,0.000,0.000,45816.277340,24434.727379,0.000000,65535.000000,37932.680140,27631.856627,0.000000,65535.000000
372.907,0.000,0.000,45816.277340,24434.727379,0.000000,65535.000000,37932.680140,27631.856627,0.000000,65535.000000
373.908,0.000,0.000,45816.277340,24434.727379,0.000000,65535.000000,37932.680140,27631.856627,0.000000,65535.000000
374.954,0.000,0.000,45816.277340,24434.727379,0.000000,65535.000000,37932.680140,27631.856627,0.000000,65535.000000
375.962,0.000,0.000,45816.277340,24434.727379,0.000000,65535.000000,37932.680140,27631.856627,0.000000,65535.000000
377.015,0.000,0.000,45816.277340,24434.727379,0.000000,65535.000000,37932.680140,27631.856627,0.000000,65535.000000
378.033,0.000,0.000,45816.277340,24434.727379,0.000000,65535.000000,37932.680140,27631.856627,0.000000,65535.000000
379.051,0.000,0.000,45816.277340,24434.727379,0.000000,65535.000000,37932.680140,27631.856627,0.000000,65535.000000
380.061,0.000,0.000,45816.277340,24434.727379,0.000000,65535.000000,37932.680140,27631.856627,0.000000,65535.000000
381.077,0.000,0.000,45816.277340,24434.727379,0.000000,65535.000000,37932.680140,27631.856627,0.000000,65535.000000
382.121,0.000,0.000,45816.277340,24434.727379,0.000000,65535.000000,37932.680140,27631.856627,0.000000,65535.000000
383.141,0.000,0.000,45816.277340,24434.727379,0.000000,65535.000000,37932.680140,27631.856627,0.000000,65535.000000
384.154,0.000,0.000,45816.277340,24434.727379,0.000000,65535.000000,37932.680140,27631.856627,0.000000,65535.000000
385.169,0.000,0.000,45816.277340,24434.727379,0.000000,65535.000000,37932.680140,27631.856627,0.000000,65535.000000
386.183,0.000,0.000,45816.277340,24434.727379,0.000000,65535.000000,37932.680140,27631.856627,0.000000,65535.000000
387.238,0.000,0.000,45816.277340,24434.727379,0.000000,65535.000000,37932.680140,27631.856627,0.000000,65535.000000
388.252,0.000,0.000,45816.277340,24434.727379,0.000000,65535.000000,37932.680140,27631.856627,0.000000,65535.000000
389.306,0.000,0.000,45816.277340,24434.727379,0.000000,65535.000000,37932.680140,27631.856627,0.000000,65535.000000
390.355,0.000,0.000,45816.277340,24434.727379,0.000000,65535.000000,37932.680140,27631.856627,0.000000,65535.000000
391.367,0.000,0.000,45816.277340,24434.727379,0.000000,65535.000000,37932.680140,27631.856627,0.000000,65535.000000
392.419,0.000,0.000,45816.277340,24434.727379,0.000000,65535.000000,37932.680140,27631.856627,0.000000,65535.000000
393.440,0.000,0.000,45816.277340,24434.727379,0.000000,65535.000000,37932.680140,27631.856627,0.000000,65535.000000
394.450,0.000,0.000,45816.277340,24434.727379,0.000000,65535.000000,37932.680140,27631.856627,0.000000,65535.000000
395.453,0.000,0.000,45816.277340,24434.727379,0.000000,65535.000000,37932.680140,27631.856627,0.000000,65535.000000
396.455,0.000,0.000,45816.277340,24434.727379,0.000000,65535.000000,37932.680140,27631.856627,0.000000,65535.000000
397.506,0.000,0.000,45816.277340,24434.727379,0.000000,65535.000000,37932.680140,27631.856627,0.000000,65535.000000
398.522,0.000,0.000,45816.277340,24434.727379,0.000000,65535.000000,37932.680140,27631.856627,0.000000,65535.000000
399.546,0.000,0.000,45816.277340,24434.727379,0.000000,65535.000000,37932.680140,27631.856627,0.000000,65535.000000
400.561,0.000,0.000,45816.277340,24434.727379,0.000000,65535.000000,37932.680140,27631.856627,0.000000,65535.000000
401.566,0.000,0.000,45816.277340,24434.727379,0.000000,65535.000000,37932.680140,27631.856627,0.000000,65535.000000
488.004,0.000,0.000,45816.277340,24434.727379,0.000000,65535.000000,37932.680140,27631.856627,0.000000,65535.000000
489.045,0.000,0.000,45816.277340,24434.727379,0.000000,65535.000000,37932.680140,27631.856627,0.000000,65535.000000
490.091,0.000,0.000,45816.277340,24434.727379,0.000000,65535.000000,37932.680140,27631.856627,0.000000,65535.000000
491.142,0.000,0.000,45816.277340,24434.727379,0.000000,65535.000000,37932.680140,27631.856627,0.000000,65535.000000
492.146,0.000,0.000,45816.277340,24434.727379,0.000000,65535.000000,37932.680140,27631.856627,0.000000,65535.000000
493.197,0.000,0.000,45816.277340,24434.727379,0.000000,65535.000000,37932.680140,27631.856627,0.000000,65535.000000
494.245,0.000,0.000,45816.277340,24434.727379,0.000000,65535.000000,37932.680140,27631.856627,0.000000,65535.000000
495.253,0.000,0.000,45816.277340,24434.727379,0.000000,65535.000000,37932.680140,27631.856627,0.000000,65535.000000
496.269,0.000,0.000,45816.277340,24434.727379,0.000000,65535.000000,37932.680140,27631.856627,0.000000,65535.000000
497.272,0.000,0.000,45816.277340,24434.727379,0.000000,65535.000000,37932.680140,27631.856627,0.000000,65535.000000
498.273,0.000,0.000,45816.277340,24434.727379,0.000000,65535.000000,37932.680140,27631.856627,0.000000,65535.000000
499.322,0.000,0.000,45816.277340,24434.727379,0.000000,65535.000000,37932.680140,27631.856627,0.000000,65535.000000
500.376,0.000,0.000,45816.277340,24434.727379,0.000000,65535.000000,37932.680140,27631.856627,0.000000,65535.000000
501.384,0.000,0.000,45816.277340,24434.727379,0.000000,65535.000000,37932.680140,27631.856627,0.000000,65535.000000
502.395,0.000,0.000,45816.277340,24434.727379,0.000000,65535.000000,37932.680140,27631.856627,0.000000,65535.000000
503.406,0.000,0.000,45816.277340,24434.727379,0.000000,65535.000000,37932.680140,27631.856627,0.000000,65535.000000
504.460,0.000,0.000,45816.277340,24434.727379,0.000000,65535.000000,37932.680140,27631.856627,0.000000,65535.000000
505.470,0.000,0.000,45816.277340,24434.727379,0.000000,65535.000000,37932.680140,27631.856627,0.000000,65535.000000
506.519,0.000,0.000,45816.277340,24434.727379,0.000000,65535.000000,37932.680140,27631.856627,0.000000,65535.000000
507.528,0.000,0.000,45816.277340,24434.727379,0.000000,65535.000000,37932.680140,27631.856627,0.000000,65535.000000
508.545,0.000,0.000,45816.277340,24434.727379,0.000000,65535.000000,37932.680140,27631.856627,0.000000,65535.000000
509.552,0.000,0.000,45816.277340,24434.727379,0.000000,65535.000000,37932.680140,27631.856627,0.000000,65535.000000
510.563,0.000,0.000,45816.277340,24434.727379,0.000000,65535.000000,37932.680140,27631.856627,0.000000,65535.000000
511.577,0.000,0.000,45816.277340,24434.727379,0.000000,65535.000000,37932.680140,27631.856627,0.000000,65535.000000
512.624,0.000,0.000,45816.277340,24434.727379,0.000000,65535.000000,37932.680140,27631.856627,0.000000,65535.000000
513.631,0.000,0.000,45816.277340,24434.727379,0.000000,65535.000000,37932.680140,27631.856627,0.000000,65535.000000
514.679,0.000,0.000,45816.277340,24434.727379,0.000000,65535.000000,37932.680140,27631.856627,0.000000,65535.000000
515.692,0.000,0.000,45816.277340,24434.727379,0.000000,65535.000000,37932.680140,27631.856627,0.000000,65535.000000
516.693,0.000,0.000,45816.277340,24434.727379,0.000000,65535.000000,37932.680140,27631.856627,0.000000,65535.000000
517.707,0.000,0.000,45816.277340,24434.727379,0.000000,65535.000000,37932.680140,27631.856627,0.000000,65535.000000
518.715,0.000,0.000,45816.277340,24434.727379,0.000000,65535.000000,37932.680140,27631.856627,0.000000,65535.000000
519.760,0.000,0.000,45816.277340,24434.727379,0.000000,65535.000000,37932.680140,27631.856627,0.000000,65535.000000
520.765,0.000,0.000,45816.277340,24434.727379,0.000000,65535.000000,37932.680140,27631.856627,0.000000,65535.000000
521.766,0.000,0.000,45816.277340,24434.727379,0.000000,65535.000000,37932.680140,27631.856627,0.000000,65535.000000
522.772,0.000,0.000,45816.277340,24434.727379,0.000000,65535.000000,37932.680140,27631.856627,0.000000,65535.000000
523.828,0.000,0.000,45816.277340,24434.727379,0.000000,65535.000000,37932.680140,27631.856627,0.000000,65535.000000
524.828,0.000,0.000,45816.277340,24434.727379,0.000000,65535.000000,37932.680140,27631.856627,0.000000,65535.000000
525.838,0.000,0.000,45816.277340,24434.727379,0.000000,65535.000000,37932.680140,27631.856627,0.000000,65535.000000
526.884,0.000,0.000,45816.277340,24434.727379,0.000000,65535.000000,37932.680140,27631.856627,0.000000,65535.000000
527.891,0.000,0.000,45816.277340,24434.727379,0.000000,65535.000000,37932.680140,27631.856627,0.000000,65535.000000
528.896,0.000,0.000,45816.277340,24434.727379,0.000000,65535.000000,37932.680140,27631.856627,0.000000,65535.000000
529.901,0.000,0.000,45816.277340,24434.727379,0.000000,65535.000000,37932.680140,27631.856627,0.000000,65535.000000
530.918,0.000,0.000,45816.277340,24434.727379,0.000000,65535.000000,37932.680140,27631.856627,0.000000,65535.000000
531.920,0.000,0.000,45816.277340,24434.727379,0.000000,65535.000000,37932.680140,27631.856627,0.000000,65535.000000
532.937,0.000,0.000,45816.277340,24434.727379,0.000000,65535.000000,37932.680140,27631.856627,0.000000,65535.000000
533.942,0.000,0.000,45816.277340,24434.727379,0.000000,65535.000000,37932.680140,27631.856627,0.000000,65535.000000
534.950,0.000,0.000,45816.277340,24434.727379,0.000000,65535.000000,37932.680140,27631.856627,0.000000,65535.000000
1442.885,0.000,0.000,45816.277340,24434.727379,0.000000,65535.000000,37932.680140,27631.856627,0.000000,65535.000000
1443.895,0.000,0.000,45816.277340,24434.727379,0.000000,65535.000000,37932.680140,27631.856627,0.000000,65535.000000
1444.941,0.000,0.000,45816.277340,24434.727379,0.000000,65535.000000,37932.680140,27631.856627,0.000000,65535.000000
1445.942,0.000,0.000,45816.277340,24434.727379,0.000000,65535.000000,37932.680140,27631.856627,0.000000,65535.000000
1446.949,0.000,0.000,45816.277340,24434.727379,0.000000,65535.000000,37932.680140,27631.856627,0.000000,65535.000000
1447.993,0.000,0.000,45816.277340,24434.727379,0.000000,65535.000000,37932.680140,27631.856627,0.000000,65535.000000
1449.043,0.000,0.000,45816.277340,24434.727379,0.000000,65535.000000,37932.680140,27631.856627,0.000000,65535.000000
1450.087,0.000,0.000,45816.277340,24434.727379,0.000000,65535.000000,37932.680140,27631.856627,0.000000,65535.000000
1451.091,0.000,0.000,45816.277340,24434.727379,0.000000,65535.000000,37932.680140,27631.856627,0.000000,65535.000000
1452.097,0.000,0.000,45816.277340,24434.727379,0.000000,65535.000000,37932.680140,27631.856627,0.000000,65535.000000
1453.149,0.000,0.000,45816.277340,24434.727379,0.000000,65535.000000,37932.680140,27631.856627,0.000000,65535.000000
1454.192,0.000,0.000,45816.277340,24434.727379,0.000000,65535.000000,37932.680140,27631.856627,0.000000,65535.000000
1455.228,0.000,0.000,45816.277340,24434.727379,0.000000,65535.000000,37932.680140,27631.856627,0.000000,65535.000000
1456.283,0.000,0.000,45816.277340,24434.727379,0.000000,65535.000000,37932.680140,27631.856627,0.000000,65535.000000
1457.294,0.000,0.000,45816.277340,24434.727379,0.000000,65535.000000,37932.680140,27631.856627,0.000000,65535.000000
1458.298,0.000,0.000,45816.277340,24434.727379,0.000000,65535.000000,37932.680140,27631.856627,0.000000,65535.000000
1459.347,0.000,0.000,45816.277340,24434.727379,0.000000,65535.000000,37932.680140,27631.856627,0.000000,65535.000000
1460.357,0.000,0.000,45816.277340,24434.727379,0.000000,65535.000000,37932.680140,27631.856627,0.000000,65535.000000
1461.374,0.000,0.000,45816.277340,24434.727379,0.000000,65535.000000,37932.680140,27631.856627,0.000000,65535.000000
1462.388,0.000,0.000,45816.277340,24434.727379,0.000000,65535.000000,37932.680140,27631.856627,0.000000,65535.000000
1463.390,0.000,0.000,45816.277340,24434.727379,0.000000,65535.000000,37932.680140,27631.856627,0.000000,65535.000000
1464.440,0.000,0.000,45816.277340,24434.727379,0.000000,65535.000000,37932.680140,27631.856627,0.000000,65535.000000
1465.446,0.000,0.000,45816.277340,24434.727379,0.000000,65535.000000,37932.680140,27631.856627,0.000000,65535.000000
1466.452,0.000,0.000,45816.277340,24434.727379,0.000000,65535.000000,37932.680140,27631.856627,0.000000,65535.000000
1467.453,0.000,0.000,45816.277340,24434.727379,0.000000,65535.000000,37932.680140,27631.856627,0.000000,65535.000000
1468.460,0.000,0.000,45816.277340,24434.727379,0.000000,65535.000000,37932.680140,27631.856627,0.000000,65535.000000
1469.509,0.000,0.000,45816.277340,24434.727379,0.000000,65535.000000,37932.680140,27631.856627,0.000000,65535.000000
1470.556,0.000,0.000,45816.277340,24434.727379,0.000000,65535.000000,37932.680140,27631.856627,0.000000,65535.000000
1471.568,0.000,0.000,45816.277340,24434.727379,0.000000,65535.000000,37932.680140,27631.856627,0.000000,65535.000000
1472.587,0.000,0.000,45816.277340,24434.727379,0.000000,65535.000000,37932.680140,27631.856627,0.000000,65535.000000
1473.595,0.000,0.000,45816.277340,24434.727379,0.000000,65535.000000,37932.680140,27631.856627,0.000000,65535.000000
1474.649,0.000,0.000,45816.277340,24434.727379,0.000000,65535.000000,37932.680140,27631.856627,0.000000,65535.000000
1475.652,0.000,0.000,45816.277340,24434.727379,0.000000,65535.000000,37932.680140,27631.856627,0.000000,65535.000000
1476.699,0.000,0.000,45816.277340,24434.727379,0.000000,65535.000000,37932.680140,27631.856627,0.000000,65535.000000
1477.754,0.000,0.000,45816.277340,24434.727379,0.000000,65535.000000,37932.680140,27631.856627,0.000000,65535.000000
1478.757,0.000,0.000,45816.277340,24434.727379,0.000000,65535.000000,37932.680140,27631.856627,0.000000,65535.000000
1479.764,0.000,0.000,45816.277340,24434.727379,0.000000,65535.000000,37932.680140,27631.856627,0.000000,65535.000000
1480.777,0.000,0.000,45816.277340,24434.727379,0.000000,65535.000000,37932.680140,27631.856627,0.000000,65535.000000
1481.784,0.000,0.000,45816.277340,24434.727379,0.000000,65535.000000,37932.680140,27631.856627,0.000000,65535.000000
1482.788,0.000,0.000,45816.277340,24434.727379,0.000000,65535.000000,37932.680140,27631.856627,0.000000,65535.000000
1483.791,0.000,0.000,45816.277340,24434.727379,0.000000,65535.000000,37932.680140,27631.856627,0.000000,65535.000000
1484.803,0.000,0.000,45816.277340,24434.727379,0.000000,65535.000000,37932.680140,27631.856627,0.000000,65535.000000
1485.817,0.000,0.000,45816.277340,24434.727379,0.000000,65535.000000,37932.680140,27631.856627,0.000000,65535.000000
1486.826,0.000,0.000,45816.277340,24434.727379,0.000000,65535.000000,37932.680140,27631.856627,0.000000,65535.000000
1487.843,0.000,0.000,45816.277340,24434.727379,0.000000,65535.000000,37932.680140,27631.856627,0.000000,65535.000000
1488.849,0.000,0.000,45816.277340,24434.727379,0.000000,65535.000000,37932.680140,27631.856627,0.000000,65535.000000
1779.312,0.000,0.000,45816.277340,24434.727379,0.000000,65535.000000,37932.680140,27631.856627,0.000000,65535.000000
1780.342,0.000,0.000,45816.277340,24434.727379,0.000000,65535.000000,37932.680140,27631.856627,0.000000,65535.000000
1781.383,0.000,0.000,45816.277340,24434.727379,0.000000,65535.000000,37932.680140,27631.856627,0.000000,65535.000000
1782.434,0.000,0.000,45816.277340,24434.727379,0.000000,65535.000000,37932.680140,27631.856627,0.000000,65535.000000
1783.434,0.000,0.000,45816.277340,24434.727379,0.000000,65535.000000,37932.680140,27631.856627,0.000000,65535.000000
1784.439,0.000,0.000,45816.277340,24434.727379,0.000000,65535.000000,37932.680140,27631.856627,0.000000,65535.000000
1785.441,0.000,0.000,45816.277340,24434.727379,0.000000,65535.000000,37932.680140,27631.856627,0.000000,65535.000000
1786.480,0.000,0.000,45816.277340,24434.727379,0.000000,65535.000000,37932.680140,27631.856627,0.000000,65535.000000
1787.530,0.000,0.000,45816.277340,24434.727379,0.000000,65535.000000,37932.680140,27631.856627,0.000000,65535.000000
1788.580,0.000,0.000,45816.277340,24434.727379,0.000000,65535.000000,37932.680140,27631.856627,0.000000,65535.000000
1789.631,0.000,0.000,45816.277340,24434.727379,0.000000,65535.000000,37932.680140,27631.856627,0.000000,65535.000000
1790.674,0.000,0.000,45816.277340,24434.727379,0.000000,65535.000000,37932.680140,27631.856627,0.000000,65535.000000
1791.721,0.000,0.000,45816.277340,24434.727379,0.000000,65535.000000,37932.680140,27631.856627,0.000000,65535.000000
1792.769,0.000,0.000,45816.277340,24434.727379,0.000000,65535.000000,37932.680140,27631.856627,0.000000,65535.000000
1793.820,0.000,0.000,45816.277340,24434.727379,0.000000,65535.000000,37932.680140,27631.856627,0.000000,65535.000000
1794.856,0.000,0.000,45816.277340,24434.727379,0.000000,65535.000000,37932.680140,27631.856627,0.000000,65535.000000
1795.908,0.000,0.000,45816.277340,24434.727379,0.000000,65535.000000,37932.680140,27631.856627,0.000000,65535.000000
1796.955,0.000,0.000,45816.277340,24434.727379,0.000000,65535.000000,37932.680140,27631.856627,0.000000,65535.000000
1797.955,0.000,0.000,45816.277340,24434.727379,0.000000,65535.000000,37932.680140,27631.856627,0.000000,65535.000000
1798.963,0.000,0.000,45816.277340,24434.727379,0.000000,65535.000000,37932.680140,27631.856627,0.000000,65535.000000
1799.979,0.000,0.000,45816.277340,24434.727379,0.000000,65535.000000,37932.680140,27631.856627,0.000000,65535.000000
1800.980,0.000,0.000,45816.277340,24434.727379,0.000000,65535.000000,37932.680140,27631.856627,0.000000,65535.000000
1802.030,0.000,0.000,45816.277340,24434.727379,0.000000,65535.000000,37932.680140,27631.856627,0.000000,65535.000000
1803.037,0.000,0.000,45816.277340,24434.727379,0.000000,65535.000000,37932.680140,27631.856627,0.000000,65535.000000
1804.050,0.000,0.000,45816.277340,24434.727379,0.000000,65535.000000,37932.680140,27631.856627,0.000000,65535.000000
1805.068,0.000,0.000,45816.277340,24434.727379,0.000000,65535.000000,37932.680140,27631.856627,0.000000,65535.000000
1806.071,0.000,0.000,45816.277340,24434.727379,0.000000,65535.000000,37932.680140,27631.856627,0.000000,65535.000000
1807.079,0.000,0.000,45816.277340,24434.727379,0.000000,65535.000000,37932.680140,27631.856627,0.000000,65535.000000
1808.082,0.000,0.000,45816.277340,24434.727379,0.000000,65535.000000,37932.680140,27631.856627,0.000000,65535.000000
1809.134,0.000,0.000,45816.277340,24434.727379,0.000000,65535.000000,37932.680140,27631.856627,0.000000,65535.000000
1810.148,0.000,0.000,45816.277340,24434.727379,0.000000,65535.000000,37932.680140,27631.856627,0.000000,65535.000000
1811.151,0.000,0.000,45816.277340,24434.727379,0.000000,65535.000000,37932.680140,27631.856627,0.000000,65535.000000
1812.160,0.000,0.000,45816.277340,24434.727379,0.000000,65535.000000,37932.680140,27631.856627,0.000000,65535.000000
1813.177,0.000,0.000,45816.277340,24434.727379,0.000000,65535.000000,37932.680140,27631.856627,0.000000,65535.000000
1814.230,0.000,0.000,45816.277340,24434.727379,0.000000,65535.000000,37932.680140,27631.856627,0.000000,65535.000000
1815.239,0.000,0.000,45816.277340,24434.727379,0.000000,65535.000000,37932.680140,27631.856627,0.000000,65535.000000
1816.262,0.000,0.000,45816.277340,24434.727379,0.000000,65535.000000,37932.680140,27631.856627,0.000000,65535.000000
1817.286,0.000,0.000,45816.277340,24434.727379,0.000000,65535.000000,37932.680140,27631.856627,0.000000,65535.000000
1818.325,0.000,0.000,45816.277340,24434.727379,0.000000,65535.000000,37932.680140,27631.856627,0.000000,65535.000000
1819.373,0.000,0.000,45816.277340,24434.727379,0.000000,65535.000000,37932.680140,27631.856627,0.000000,65535.000000
1820.406,0.000,0.000,45816.277340,24434.727379,0.000000,65535.000000,37932.680140,27631.856627,0.000000,65535.000000
1821.439,0.000,0.000,45816.277340,24434.727379,0.000000,65535.000000,37932.680140,27631.856627,0.000000,65535.000000
1822.492,0.000,0.000,45816.277340,24434.727379,0.000000,65535.000000,37932.680140,27631.856627,0.000000,65535.000000
1823.531,0.000,0.000,45816.277340,24434.727379,0.000000,65535.000000,37932.680140,27631.856627,0.000000,65535.000000
1824.564,0.000,0.000,45816.277340,24434.727379,0.000000,65535.000000,37932.680140,27631.856627,0.000000,65535.000000
1825.610,0.000,0.000,45816.277340,24434.727379,0.000000,65535.000000,37932.680140,27631.856627,0.000000,65535.000000
1826.654,0.000,0.000,45816.277340,24434.727379,0.000000,65535.000000,37932.680140,27631.856627,0.000000,65535.000000
1827.693,0.000,0.000,45816.277340,24434.727379,0.000000,65535.000000,37932.680140,27631.856627,0.000000,65535.000000
1828.745,0.000,0.000,45816.277340,24434.727379,0.000000,65535.000000,37932.680140,27631.856627,0.000000,65535.000000
1829.785,0.000,0.000,45816.277340,24434.727379,0.000000,65535.000000,37932.680140,27631.856627,0.000000,65535.000000
1830.795,0.000,0.000,45816.277340,24434.727379,0.000000,65535.000000,37932.680140,27631.856627,0.000000,65535.000000
1831.839,0.000,0.000,45816.277340,24434.727379,0.000000,65535.000000,37932.680140,27631.856627,0.000000,65535.000000
1832.891,0.000,0.000,45816.277340,24434.727379,0.000000,65535.000000,37932.680140,27631.856627,0.000000,65535.000000
1833.944,0.000,0.000,45816.277340,24434.727379,0.000000,65535.000000,37932.680140,27631.856627,0.000000,65535.000000
1834.946,0.000,0.000,45816.277340,24434.727379,0.000000,65535.000000,37932.680140,27631.856627,0.000000,65535.000000
1835.983,0.000,0.000,45816.277340,24434.727379,0.000000,65535.000000,37932.680140,27631.856627,0.000000,65535.000000
1837.031,0.000,0.000,45816.277340,24434.727379,0.000000,65535.000000,37932.680140,27631.856627,0.000000,65535.000000
1838.076,0.000,0.000,45816.277340,24434.727379,0.000000,65535.000000,37932.680140,27631.856627,0.000000,65535.000000
1839.119,0.000,0.000,45816.277340,24434.727379,0.000000,65535.000000,37932.680140,27631.856627,0.000000,65535.000000
1840.164,0.000,0.000,45816.277340,24434.727379,0.000000,65535.000000,37932.680140,27631.856627,0.000000,65535.000000
1841.201,0.000,0.000,45816.277340,24434.727379,0.000000,65535.000000,37932.680140,27631.856627,0.000000,65535.000000
1842.208,0.000,0.000,45816.277340,24434.727379,0.000000,65535.000000,37932.680140,27631.856627,0.000000,65535.000000
1843.252,0.000,0.000,45816.277340,24434.727379,0.000000,65535.000000,37932.680140,27631.856627,0.000000,65535.000000
1844.253,0.000,0.000,45816.277340,24434.727379,0.000000,65535.000000,37932.680140,27631.856627,0.000000,65535.000000
1845.256,0.000,0.000,45816.277340,24434.727379,0.000000,65535.000000,37932.680140,27631.856627,0.000000,65535.000000
1846.296,0.000,0.000,45816.277340,24434.727379,0.000000,65535.000000,37932.680140,27631.856627,0.000000,65535.000000
1847.340,0.000,0.000,45816.277340,24434.727379,0.000000,65535.000000,37932.680140,27631.856627,0.000000,65535.000000
1848.395,0.000,0.000,45816.277340,24434.727379,0.000000,65535.000000,37932.680140,27631.856627,0.000000,65535.000000
1849.444,0.000,0.000,45816.277340,24434.727379,0.000000,65535.000000,37932.680140,27631.856627,0.000000,65535.000000
1850.445,0.000,0.000,45816.277340,24434.727379,0.000000,65535.000000,37932.680140,27631.856627,0.000000,65535.000000
1851.494,0.000,0.000,45816.277340,24434.727379,0.000000,65535.000000,37932.680140,27631.856627,0.000000,65535.000000
1852.550,0.000,0.000,45816.277340,24434.727379,0.000000,65535.000000,37932.680140,27631.856627,0.000000,65535.000000
1853.552,0.000,0.000,45816.277340,24434.727379,0.000000,65535.000000,37932.680140,27631.856627,0.000000,65535.000000
1854.559,0.000,0.000,45816.277340,24434.727379,0.000000,65535.000000,37932.680140,27631.856627,0.000000,65535.000000
1855.611,0.000,0.000,45816.277340,24434.727379,0.000000,65535.000000,37932.680140,27631.856627,0.000000,65535.000000
1856.663,0.000,0.000,45816.277340,24434.727379,0.000000,65535.000000,37932.680140,27631.856627,0.000000,65535.000000
1857.670,0.000,0.000,45816.277340,24434.727379,0.000000,65535.000000,37932.680140,27631.856627,0.000000,65535.000000
1858.722,0.000,0.000,45816.277340,24434.727379,0.000000,65535.000000,37932.680140,27631.856627,0.000000,65535.000000
1859.723,0.000,0.000,45816.277340,24434.727379,0.000000,65535.000000,37932.680140,27631.856627,0.000000,65535.000000
1860.772,0.000,0.000,45816.277340,24434.727379,0.000000,65535.000000,37932.680140,27631.856627,0.000000,65535.000000
1861.781,0.000,0.000,45816.277340,24434.727379,0.000000,65535.000000,37932.680140,27631.856627,0.000000,65535.000000
1862.836,0.000,0.000,45816.277340,24434.727379,0.000000,65535.000000,37932.680140,27631.856627,0.000000,65535.000000
1863.843,0.000,0.000,45816.277340,24434.727379,0.000000,65535.000000,37932.680140,27631.856627,0.000000,65535.000000
1864.888,0.000,0.000,45816.277340,24434.727379,0.000000,65535.000000,37932.680140,27631.856627,0.000000,65535.000000
1865.942,0.000,0.000,45816.277340,24434.727379,0.000000,65535.000000,37932.680140,27631.856627,0.000000,65535.000000
1866.948,0.000,0.000,45816.277340,24434.727379,0.000000,65535.000000,37932.680140,27631.856627,0.000000,65535.000000
1867.955,0.000,0.000,45816.277340,24434.727379,0.000000,65535.000000,37932.680140,27631.856627,0.000000,65535.000000
1868.956,0.000,0.000,45816.277340,24434.727379,0.000000,65535.000000,37932.680140,27631.856627,0.000000,65535.000000
1869.960,0.000,0.000,45816.277340,24434.727379,0.000000,65535.000000,37932.680140,27631.856627,0.000000,65535.000000
1871.009,0.000,0.000,45816.277340,24434.727379,0.000000,65535.000000,37932.680140,27631.856627,0.000000,65535.000000
1872.011,0.000,0.000,45816.277340,24434.727379,0.000000,65535.000000,37932.680140,27631.856627,0.000000,65535.000000
1873.017,0.000,0.000,45816.277340,24434.727379,0.000000,65535.000000,37932.680140,27631.856627,0.000000,65535.000000
1874.023,0.000,0.000,45816.277340,24434.727379,0.000000,65535.000000,37932.680140,27631.856627,0.000000,65535.000000
1875.030,0.000,0.000,45816.277340,24434.727379,0.000000,65535.000000,37932.680140,27631.856627,0.000000,65535.000000
1876.077,0.000,0.000,45816.277340,24434.727379,0.000000,65535.000000,37932.680140,27631.856627,0.000000,65535.000000
1877.080,0.000,0.000,45816.277340,24434.727379,0.000000,65535.000000,37932.680140,27631.856627,0.000000,65535.000000
1878.084,0.000,0.000,45816.277340,24434.727379,0.000000,65535.000000,37932.680140,27631.856627,0.000000,65535.000000
1879.087,0.000,0.000,45816.277340,24434.727379,0.000000,65535.000000,37932.680140,27631.856627,0.000000,65535.000000
1880.093,0.000,0.000,45816.277340,24434.727379,0.000000,65535.000000,37932.680140,27631.856627,0.000000,65535.000000
1881.136,0.000,0.000,45816.277340,24434.727379,0.000000,65535.000000,37932.680140,27631.856627,0.000000,65535.000000
1882.145,0.000,0.000,45816.277340,24434.727379,0.000000,65535.000000,37932.680140,27631.856627,0.000000,65535.000000
1883.195,0.000,0.000,45816.277340,24434.727379,0.000000,65535.000000,37932.680140,27631.856627,0.000000,65535.000000
1884.198,0.000,0.000,45816.277340,24434.727379,0.000000,65535.000000,37932.680140,27631.856627,0.000000,65535.000000
1885.205,0.000,0.000,45816.277340,24434.727379,0.000000,65535.000000,37932.680140,27631.856627,0.000000,65535.000000
1886.255,0.000,0.000,45816.277340,24434.727379,0.000000,65535.000000,37932.680140,27631.856627,0.000000,65535.000000
1887.257,0.000,0.000,45816.277340,24434.727379,0.000000,65535.000000,37932.680140,27631.856627,0.000000,65535.000000
1888.258,0.000,0.000,45816.277340,24434.727379,0.000000,65535.000000,37932.680140,27631.856627,0.000000,65535.000000
1889.265,0.000,0.000,45816.277340,24434.727379,0.000000,65535.000000,37932.680140,27631.856627,0.000000,65535.000000
1890.266,0.000,0.000,45816.277340,24434.727379,0.000000,65535.000000,37932.680140,27631.856627,0.000000,65535.000000
1891.318,0.000,0.000,45816.277340,24434.727379,0.000000,65535.000000,37932.680140,27631.856627,0.000000,65535.000000
1892.331,0.000,0.000,45816.277340,24434.727379,0.000000,65535.000000,37932.680140,27631.856627,0.000000,65535.000000
1893.338,0.000,0.000,45816.277340,24434.727379,0.000000,65535.000000,37932.680140,27631.856627,0.000000,65535.000000
1894.344,0.000,0.000,45816.277340,24434.727379,0.000000,65535.000000,37932.680140,27631.856627,0.000000,65535.000000
1895.355,0.000,0.000,45816.277340,24434.727379,0.000000,65535.000000,37932.680140,27631.856627,0.000000,65535.000000
1896.355,0.000,0.000,45816.277340,24434.727379,0.000000,65535.000000,37932.680140,27631.856627,0.000000,65535.000000
1897.365,0.000,0.000,45816.277340,24434.727379,0.000000,65535.000000,37932.680140,27631.856627,0.000000,65535.000000
1898.381,0.000,0.000,45816.277340,24434.727379,0.000000,65535.000000,37932.680140,27631.856627,0.000000,65535.000000
1899.387,0.000,0.000,45816.277340,24434.727379,0.000000,65535.000000,37932.680140,27631.856627,0.000000,65535.000000
1900.391,0.000,0.000,45816.277340,24434.727379,0.000000,65535.000000,37932.680140,27631.856627,0.000000,65535.000000
1901.393,0.000,0.000,45816.277340,24434.727379,0.000000,65535.000000,37932.680140,27631.856627,0.000000,65535.000000
1902.395,0.000,0.000,45816.277340,24434.727379,0.000000,65535.000000,37932.680140,27631.856627,0.000000,65535.000000
1903.402,0.000,0.000,45816.277340,24434.727379,0.000000,65535.000000,37932.680140,27631.856627,0.000000,65535.000000
1904.410,0.000,0.000,45816.277340,24434.727379,0.000000,65535.000000,37932.680140,27631.856627,0.000000,65535.000000
1905.426,0.000,0.000,45816.277340,24434.727379,0.000000,65535.000000,37932.680140,27631.856627,0.000000,65535.000000
1906.426,0.000,0.000,45816.277340,24434.727379,0.000000,65535.000000,37932.680140,27631.856627,0.000000,65535.000000
1907.438,0.000,0.000,45816.277340,24434.727379,0.000000,65535.000000,37932.680140,27631.856627,0.000000,65535.000000
1908.449,0.000,0.000,45816.277340,24434.727379,0.000000,65535.000000,37932.680140,27631.856627,0.000000,65535.000000
1909.456,0.000,0.000,45816.277340,24434.727379,0.000000,65535.000000,37932.680140,27631.856627,0.000000,65535.000000
1910.469,0.000,0.000,45816.277340,24434.727379,0.000000,65535.000000,37932.680140,27631.856627,0.000000,65535.000000
1911.508,0.000,0.000,45816.277340,24434.727379,0.000000,65535.000000,37932.680140,27631.856627,0.000000,65535.000000
1912.559,0.000,0.000,45816.277340,24434.727379,0.000000,65535.000000,37932.680140,27631.856627,0.000000,65535.000000
1913.611,0.000,0.000,45816.277340,24434.727379,0.000000,65535.000000,37932.680140,27631.856627,0.000000,65535.000000
1914.661,0.000,0.000,45816.277340,24434.727379,0.000000,65535.000000,37932.680140,27631.856627,0.000000,65535.000000
1915.696,0.000,0.000,45816.277340,24434.727379,0.000000,65535.000000,37932.680140,27631.856627,0.000000,65535.000000
1916.723,0.000,0.000,45816.277340,24434.727379,0.000000,65535.000000,37932.680140,27631.856627,0.000000,65535.000000
1917.778,0.000,0.000,45816.277340,24434.727379,0.000000,65535.000000,37932.680140,27631.856627,0.000000,65535.000000
1918.817,0.000,0.000,45816.277340,24434.727379,0.000000,65535.000000,37932.680140,27631.856627,0.000000,65535.000000
1919.868,0.000,0.000,45816.277340,24434.727379,0.000000,65535.000000,37932.680140,27631.856627,0.000000,65535.000000
1920.917,0.000,0.000,45816.277340,24434.727379,0.000000,65535.000000,37932.680140,27631.856627,0.000000,65535.000000
1921.965,0.000,0.000,45816.277340,24434.727379,0.000000,65535.000000,37932.680140,27631.856627,0.000000,65535.000000
1922.965,0.000,0.000,45816.277340,24434.727379,0.000000,65535.000000,37932.680140,27631.856627,0.000000,65535.000000
1924.018,0.000,0.000,45816.277340,24434.727379,0.000000,65535.000000,37932.680140,27631.856627,0.000000,65535.000000
1925.070,0.000,0.000,45816.277340,24434.727379,0.000000,65535.000000,37932.680140,27631.856627,0.000000,65535.000000
1926.114,0.000,0.000,45816.277340,24434.727379,0.000000,65535.000000,37932.680140,27631.856627,0.000000,65535.000000
1927.166,0.000,0.000,45816.277340,24434.727379,0.000000,65535.000000,37932.680140,27631.856627,0.000000,65535.000000
1928.215,0.000,0.000,45816.277340,24434.727379,0.000000,65535.000000,37932.680140,27631.856627,0.000000,65535.000000
1929.216,0.000,0.000,45816.277340,24434.727379,0.000000,65535.000000,37932.680140,27631.856627,0.000000,65535.000000
1930.266,0.000,0.000,45816.277340,24434.727379,0.000000,65535.000000,37932.680140,27631.856627,0.000000,65535.000000
1931.308,0.000,0.000,45816.277340,24434.727379,0.000000,65535.000000,37932.680140,27631.856627,0.000000,65535.000000
1932.349,0.000,0.000,45816.277340,24434.727379,0.000000,65535.000000,37932.680140,27631.856627,0.000000,65535.000000
1933.392,0.000,0.000,45816.277340,24434.727379,0.000000,65535.000000,37932.680140,27631.856627,0.000000,65535.000000
1934.442,0.000,0.000,45816.277340,24434.727379,0.000000,65535.000000,37932.680140,27631.856627,0.000000,65535.000000
1935.490,0.000,0.000,45816.277340,24434.727379,0.000000,65535.000000,37932.680140,27631.856627,0.000000,65535.000000
1936.529,0.000,0.000,45816.277340,24434.727379,0.000000,65535.000000,37932.680140,27631.856627,0.000000,65535.000000
1937.583,0.000,0.000,45816.277340,24434.727379,0.000000,65535.000000,37932.680140,27631.856627,0.000000,65535.000000
1938.593,0.000,0.000,45816.277340,24434.727379,0.000000,65535.000000,37932.680140,27631.856627,0.000000,65535.000000
1939.606,0.000,0.000,45816.277340,24434.727379,0.000000,65535.000000,37932.680140,27631.856627,0.000000,65535.000000
1940.657,0.000,0.000,45816.277340,24434.727379,0.000000,65535.000000,37932.680140,27631.856627,0.000000,65535.000000
1941.707,0.000,0.000,45816.277340,24434.727379,0.000000,65535.000000,37932.680140,27631.856627,0.000000,65535.000000
1942.708,0.000,0.000,45816.277340,24434.727379,0.000000,65535.000000,37932.680140,27631.856627,0.000000,65535.000000
1943.715,0.000,0.000,45816.277340,24434.727379,0.000000,65535.000000,37932.680140,27631.856627,0.000000,65535.000000
1944.720,0.000,0.000,45816.277340,24434.727379,0.000000,65535.000000,37932.680140,27631.856627,0.000000,65535.000000
1945.775,0.000,0.000,45816.277340,24434.727379,0.000000,65535.000000,37932.680140,27631.856627,0.000000,65535.000000
1946.821,0.000,0.000,45816.277340,24434.727379,0.000000,65535.000000,37932.680140,27631.856627,0.000000,65535.000000
1947.832,0.000,0.000,45816.277340,24434.727379,0.000000,65535.000000,37932.680140,27631.856627,0.000000,65535.000000
1948.876,0.000,0.000,45816.277340,24434.727379,0.000000,65535.000000,37932.680140,27631.856627,0.000000,65535.000000
1949.925,0.000,0.000,45816.277340,24434.727379,0.000000,65535.000000,37932.680140,27631.856627,0.000000,65535.000000
1950.976,0.000,0.000,45816.277340,24434.727379,0.000000,65535.000000,37932.680140,27631.856627,0.000000,65535.000000
1951.984,0.000,0.000,45816.277340,24434.727379,0.000000,65535.000000,37932.680140,27631.856627,0.000000,65535.000000
1953.039,0.000,0.000,45816.277340,24434.727379,0.000000,65535.000000,37932.680140,27631.856627,0.000000,65535.000000
1954.039,0.000,0.000,45816.277340,24434.727379,0.000000,65535.000000,37932.680140,27631.856627,0.000000,65535.000000
1955.043,0.000,0.000,45816.277340,24434.727379,0.000000,65535.000000,37932.680140,27631.856627,0.000000,65535.000000
1956.094,0.000,0.000,45816.277340,24434.727379,0.000000,65535.000000,37932.680140,27631.856627,0.000000,65535.000000
1957.096,0.000,0.000,45816.277340,24434.727379,0.000000,65535.000000,37932.680140,27631.856627,0.000000,65535.000000
1958.132,0.000,0.000,45816.277340,24434.727379,0.000000,65535.000000,37932.680140,27631.856627,0.000000,65535.000000
1959.166,0.000,0.000,45816.277340,24434.727379,0.000000,65535.000000,37932.680140,27631.856627,0.000000,65535.000000
1960.221,0.000,0.000,45816.277340,24434.727379,0.000000,65535.000000,37932.680140,27631.856627,0.000000,65535.000000
1961.257,0.000,0.000,45816.277340,24434.727379,0.000000,65535.000000,37932.680140,27631.856627,0.000000,65535.000000
1962.264,0.000,0.000,45816.277340,24434.727379,0.000000,65535.000000,37932.680140,27631.856627,0.000000,65535.000000
1963.311,0.000,0.000,45816.277340,24434.727379,0.000000,65535.000000,37932.680140,27631.856627,0.000000,65535.000000
1964.362,0.000,0.000,45816.277340,24434.727379,0.000000,65535.000000,37932.680140,27631.856627,0.000000,65535.000000
1965.387,0.000,0.000,45816.277340,24434.727379,0.000000,65535.000000,37932.680140,27631.856627,0.000000,65535.000000
1966.388,0.000,0.000,45816.277340,24434.727379,0.000000,65535.000000,37932.680140,27631.856627,0.000000,65535.000000
1967.443,0.000,0.000,45816.277340,24434.727379,0.000000,65535.000000,37932.680140,27631.856627,0.000000,65535.000000
1968.470,0.000,0.000,45816.277340,24434.727379,0.000000,65535.000000,37932.680140,27631.856627,0.000000,65535.000000
1969.476,0.000,0.000,45816.277340,24434.727379,0.000000,65535.000000,37932.680140,27631.856627,0.000000,65535.000000
1970.479,0.000,0.000,45816.277340,24434.727379,0.000000,65535.000000,37932.680140,27631.856627,0.000000,65535.000000
1971.525,0.000,0.000,45816.277340,24434.727379,0.000000,65535.000000,37932.680140,27631.856627,0.000000,65535.000000
1972.526,0.000,0.000,45816.277340,24434.727379,0.000000,65535.000000,37932.680140,27631.856627,0.000000,65535.000000
1973.537,0.000,0.000,45816.277340,24434.727379,0.000000,65535.000000,37932.680140,27631.856627,0.000000,65535.000000
1974.538,0.000,0.000,45816.277340,24434.727379,0.000000,65535.000000,37932.680140,27631.856627,0.000000,65535.000000
1975.585,0.000,0.000,45816.277340,24434.727379,0.000000,65535.000000,37932.680140,27631.856627,0.000000,65535.000000
1976.604,0.000,0.000,45816.277340,24434.727379,0.000000,65535.000000,37932.680140,27631.856627,0.000000,65535.000000
1977.659,0.000,0.000,45816.277340,24434.727379,0.000000,65535.000000,37932.680140,27631.856627,0.000000,65535.000000
1978.663,0.000,0.000,45816.277340,24434.727379,0.000000,65535.000000,37932.680140,27631.856627,0.000000,65535.000000
1979.668,0.000,0.000,45816.277340,24434.727379,0.000000,65535.000000,37932.680140,27631.856627,0.000000,65535.000000
1980.668,0.000,0.000,45816.277340,24434.727379,0.000000,65535.000000,37932.680140,27631.856627,0.000000,65535.000000
1981.717,0.000,0.000,45816.277340,24434.727379,0.000000,65535.000000,37932.680140,27631.856627,0.000000,65535.000000
1982.728,0.000,0.000,45816.277340,24434.727379,0.000000,65535.000000,37932.680140,27631.856627,0.000000,65535.000000
1983.740,0.000,0.000,45816.277340,24434.727379,0.000000,65535.000000,37932.680140,27631.856627,0.000000,65535.000000
1984.790,0.000,0.000,45816.277340,24434.727379,0.000000,65535.000000,37932.680140,27631.856627,0.000000,65535.000000
1985.814,0.000,0.000,45816.277340,24434.727379,0.000000,65535.000000,37932.680140,27631.856627,0.000000,65535.000000
1986.853,0.000,0.000,45816.277340,24434.727379,0.000000,65535.000000,37932.680140,27631.856627,0.000000,65535.000000
1987.857,0.000,0.000,45816.277340,24434.727379,0.000000,65535.000000,37932.680140,27631.856627,0.000000,65535.000000
1988.860,0.000,0.000,45816.277340,24434.727379,0.000000,65535.000000,37932.680140,27631.856627,0.000000,65535.000000
1989.870,0.000,0.000,45816.277340,24434.727379,0.000000,65535.000000,37932.680140,27631.856627,0.000000,65535.000000
1990.920,0.000,0.000,45816.277340,24434.727379,0.000000,65535.000000,37932.680140,27631.856627,0.000000,65535.000000
1991.925,0.000,0.000,45816.277340,24434.727379,0.000000,65535.000000,37932.680140,27631.856627,0.000000,65535.000000
1992.940,0.000,0.000,45816.277340,24434.727379,0.000000,65535.000000,37932.680140,27631.856627,0.000000,65535.000000
1993.945,0.000,0.000,45816.277340,24434.727379,0.000000,65535.000000,37932.680140,27631.856627,0.000000,65535.000000
1994.957,0.000,0.000,45816.277340,24434.727379,0.000000,65535.000000,37932.680140,27631.856627,0.000000,65535.000000
1995.961,0.000,0.000,45816.277340,24434.727379,0.000000,65535.000000,37932.680140,27631.856627,0.000000,65535.000000
1996.971,0.000,0.000,45816.277340,24434.727379,0.000000,65535.000000,37932.680140,27631.856627,0.000000,65535.000000
1997.981,0.000,0.000,45816.277340,24434.727379,0.000000,65535.000000,37932.680140,27631.856627,0.000000,65535.000000
1998.992,0.000,0.000,45816.277340,24434.727379,0.000000,65535.000000,37932.680140,27631.856627,0.000000,65535.000000
2000.000,0.000,0.000,45816.277340,24434.727379,0.000000,65535.000000,37932.680140,27631.856627,0.000000,65535.000000
2001.000,0.000,0.000,45816.277340,24434.727379,0.000000,65535.000000,37932.680140,27631.856627,0.000000,65535.000000
2002.051,0.000,0.000,45816.277340,24434.727379,0.000000,65535.000000,37932.680140,27631.856627,0.000000,65535.000000
2003.056,0.000,0.000,45816.277340,24434.727379,0.000000,65535.000000,37932.680140,27631.856627,0.000000,65535.000000
2004.065,0.000,0.000,45816.277340,24434.727379,0.000000,65535.000000,37932.680140,27631.856627,0.000000,65535.000000
2005.076,0.000,0.000,45816.277340,24434.727379,0.000000,65535.000000,37932.680140,27631.856627,0.000000,65535.000000
2006.127,0.000,0.000,45816.277340,24434.727379,0.000000,65535.000000,37932.680140,27631.856627,0.000000,65535.000000
2007.127,0.000,0.000,45816.277340,24434.727379,0.000000,65535.000000,37932.680140,27631.856627,0.000000,65535.000000
2008.134,0.000,0.000,45816.277340,24434.727379,0.000000,65535.000000,37932.680140,27631.856627,0.000000,65535.000000
2009.134,0.000,0.000,45816.277340,24434.727379,0.000000,65535.000000,37932.680140,27631.856627,0.000000,65535.000000
2010.145,0.000,0.000,45816.277340,24434.727379,0.000000,65535.000000,37932.680140,27631.856627,0.000000,65535.000000
2011.146,0.000,0.000,45816.277340,24434.727379,0.000000,65535.000000,37932.680140,27631.856627,0.000000,65535.000000
2012.157,0.000,0.000,45816.277340,24434.727379,0.000000,65535.000000,37932.680140,27631.856627,0.000000,65535.000000
2013.158,0.000,0.000,45816.277340,24434.727379,0.000000,65535.000000,37932.680140,27631.856627,0.000000,65535.000000
2014.168,0.000,0.000,45816.277340,24434.727379,0.000000,65535.000000,37932.680140,27631.856627,0.000000,65535.000000
2015.176,0.000,0.000,45816.277340,24434.727379,0.000000,65535.000000,37932.680140,27631.856627,0.000000,65535.000000
2016.225,0.000,0.000,45816.277340,24434.727379,0.000000,65535.000000,37932.680140,27631.856627,0.000000,65535.000000
2017.231,0.000,0.000,45816.277340,24434.727379,0.000000,65535.000000,37932.680140,27631.856627,0.000000,65535.000000
2018.243,0.000,0.000,45816.277340,24434.727379,0.000000,65535.000000,37932.680140,27631.856627,0.000000,65535.000000
2019.250,0.000,0.000,45816.277340,24434.727379,0.000000,65535.000000,37932.680140,27631.856627,0.000000,65535.000000
2020.303,0.000,0.000,45816.277340,24434.727379,0.000000,65535.000000,37932.680140,27631.856627,0.000000,65535.000000
2021.305,0.000,0.000,45816.277340,24434.727379,0.000000,65535.000000,37932.680140,27631.856627,0.000000,65535.000000
2022.313,0.000,0.000,45816.277340,24434.727379,0.000000,65535.000000,37932.680140,27631.856627,0.000000,65535.000000
2023.323,0.000,0.000,45816.277340,24434.727379,0.000000,65535.000000,37932.680140,27631.856627,0.000000,65535.000000
2024.335,0.000,0.000,45816.277340,24434.727379,0.000000,65535.000000,37932.680140,27631.856627,0.000000,65535.000000
2025.335,0.000,0.000,45816.277340,24434.727379,0.000000,65535.000000,37932.680140,27631.856627,0.000000,65535.000000
2026.389,0.000,0.000,45816.277340,24434.727379,0.000000,65535.000000,37932.680140,27631.856627,0.000000,65535.000000
2027.396,0.000,0.000,45816.277340,24434.727379,0.000000,65535.000000,37932.680140,27631.856627,0.000000,65535.000000
2028.408,0.000,0.000,45816.277340,24434.727379,0.000000,65535.000000,37932.680140,27631.856627,0.000000,65535.000000
2029.415,0.000,0.000,45816.277340,24434.727379,0.000000,65535.000000,37932.680140,27631.856627,0.000000,65535.000000
2030.422,0.000,0.000,45816.277340,24434.727379,0.000000,65535.000000,37932.680140,27631.856627,0.000000,65535.000000
2031.425,0.000,0.000,45816.277340,24434.727379,0.000000,65535.000000,37932.680140,27631.856627,0.000000,65535.000000
2032.432,0.000,0.000,45816.277340,24434.727379,0.000000,65535.000000,37932.680140,27631.856627,0.000000,65535.000000
2033.434,0.000,0.000,45816.277340,24434.727379,0.000000,65535.000000,37932.680140,27631.856627,0.000000,65535.000000
2034.441,0.000,0.000,45816.277340,24434.727379,0.000000,65535.000000,37932.680140,27631.856627,0.000000,65535.000000
2035.453,0.000,0.000,45816.277340,24434.727379,0.000000,65535.000000,37932.680140,27631.856627,0.000000,65535.000000
2036.456,0.000,0.000,45816.277340,24434.727379,0.000000,65535.000000,37932.680140,27631.856627,0.000000,65535.000000
2037.468,0.000,0.000,45816.277340,24434.727379,0.000000,65535.000000,37932.680140,27631.856627,0.000000,65535.000000
2038.517,0.000,0.000,45816.277340,24434.727379,0.000000,65535.000000,37932.680140,27631.856627,0.000000,65535.000000
2039.529,0.000,0.000,45816.277340,24434.727379,0.000000,65535.000000,37932.680140,27631.856627,0.000000,65535.000000
2040.542,0.000,0.000,45816.277340,24434.727379,0.000000,65535.000000,37932.680140,27631.856627,0.000000,65535.000000
2041.591,0.000,0.000,45816.277340,24434.727379,0.000000,65535.000000,37932.680140,27631.856627,0.000000,65535.000000
2042.595,0.000,0.000,45816.277340,24434.727379,0.000000,65535.000000,37932.680140,27631.856627,0.000000,65535.000000
2043.608,0.000,0.000,45816.277340,24434.727379,0.000000,65535.000000,37932.680140,27631.856627,0.000000,65535.000000
2044.609,0.000,0.000,45816.277340,24434.727379,0.000000,65535.000000,37932.680140,27631.856627,0.000000,65535.000000
2045.614,0.000,0.000,45816.277340,24434.727379,0.000000,65535.000000,37932.680140,27631.856627,0.000000,65535.000000
2046.659,0.000,0.000,45816.277340,24434.727379,0.000000,65535.000000,37932.680140,27631.856627,0.000000,65535.000000
2047.675,0.000,0.000,45816.277340,24434.727379,0.000000,65535.000000,37932.680140,27631.856627,0.000000,65535.000000
2048.689,0.000,0.000,45816.277340,24434.727379,0.000000,65535.000000,37932.680140,27631.856627,0.000000,65535.000000
2049.699,0.000,0.000,45816.277340,24434.727379,0.000000,65535.000000,37932.680140,27631.856627,0.000000,65535.000000
2050.746,0.000,0.000,45816.277340,24434.727379,0.000000,65535.000000,37932.680140,27631.856627,0.000000,65535.000000
2051.747,0.000,0.000,45816.277340,24434.727379,0.000000,65535.000000,37932.680140,27631.856627,0.000000,65535.000000
2052.762,0.000,0.000,45816.277340,24434.727379,0.000000,65535.000000,37932.680140,27631.856627,0.000000,65535.000000
2053.769,0.000,0.000,45816.277340,24434.727379,0.000000,65535.000000,37932.680140,27631.856627,0.000000,65535.000000
2054.774,0.000,0.000,45816.277340,24434.727379,0.000000,65535.000000,37932.680140,27631.856627,0.000000,65535.000000
2055.819,0.000,0.000,45816.277340,24434.727379,0.000000,65535.000000,37932.680140,27631.856627,0.000000,65535.000000
2056.829,0.000,0.000,45816.277340,24434.727379,0.000000,65535.000000,37932.680140,27631.856627,0.000000,65535.000000
2057.838,0.000,0.000,45816.277340,24434.727379,0.000000,65535.000000,37932.680140,27631.856627,0.000000,65535.000000
2058.846,0.000,0.000,45816.277340,24434.727379,0.000000,65535.000000,37932.680140,27631.856627,0.000000,65535.000000
2059.856,0.000,0.000,45816.277340,24434.727379,0.000000,65535.000000,37932.680140,27631.856627,0.000000,65535.000000
2060.857,0.000,0.000,45816.277340,24434.727379,0.000000,65535.000000,37932.680140,27631.856627,0.000000,65535.000000
2061.859,0.000,0.000,45816.277340,24434.727379,0.000000,65535.000000,37932.680140,27631.856627,0.000000,65535.000000
2062.861,0.000,0.000,45816.277340,24434.727379,0.000000,65535.000000,37932.680140,27631.856627,0.000000,65535.000000
2063.864,0.000,0.000,45816.277340,24434.727379,0.000000,65535.000000,37932.680140,27631.856627,0.000000,65535.000000
2064.873,0.000,0.000,45816.277340,24434.727379,0.000000,65535.000000,37932.680140,27631.856627,0.000000,65535.000000
2065.921,0.000,0.000,45816.277340,24434.727379,0.000000,65535.000000,37932.680140,27631.856627,0.000000,65535.000000
2066.926,0.000,0.000,45816.277340,24434.727379,0.000000,65535.000000,37932.680140,27631.856627,0.000000,65535.000000
2067.931,0.000,0.000,45816.277340,24434.727379,0.000000,65535.000000,37932.680140,27631.856627,0.000000,65535.000000
2068.936,0.000,0.000,45816.277340,24434.727379,0.000000,65535.000000,37932.680140,27631.856627,0.000000,65535.000000
2069.941,0.000,0.000,45816.277340,24434.727379,0.000000,65535.000000,37932.680140,27631.856627,0.000000,65535.000000
2070.994,0.000,0.000,45816.277340,24434.727379,0.000000,65535.000000,37932.680140,27631.856627,0.000000,65535.000000
2072.000,0.000,0.000,45816.277340,24434.727379,0.000000,65535.000000,37932.680140,27631.856627,0.000000,65535.000000
2073.010,0.000,0.000,45816.277340,24434.727379,0.000000,65535.000000,37932.680140,27631.856627,0.000000,65535.000000
2074.017,0.000,0.000,45816.277340,24434.727379,0.000000,65535.000000,37932.680140,27631.856627,0.000000,65535.000000
2075.018,0.000,0.000,45816.277340,24434.727379,0.000000,65535.000000,37932.680140,27631.856627,0.000000,65535.000000
2076.059,0.000,0.000,45816.277340,24434.727379,0.000000,65535.000000,37932.680140,27631.856627,0.000000,65535.000000
2077.068,0.000,0.000,45816.277340,24434.727379,0.000000,65535.000000,37932.680140,27631.856627,0.000000,65535.000000
2078.079,0.000,0.000,45816.277340,24434.727379,0.000000,65535.000000,37932.680140,27631.856627,0.000000,65535.000000
2079.088,0.000,0.000,45816.277340,24434.727379,0.000000,65535.000000,37932.680140,27631.856627,0.000000,65535.000000
2080.097,0.000,0.000,45816.277340,24434.727379,0.000000,65535.000000,37932.680140,27631.856627,0.000000,65535.000000
2081.150,0.000,0.000,45816.277340,24434.727379,0.000000,65535.000000,37932.680140,27631.856627,0.000000,65535.000000
2082.160,0.000,0.000,45816.277340,24434.727379,0.000000,65535.000000,37932.680140,27631.856627,0.000000,65535.000000
2083.173,0.000,0.000,45816.277340,24434.727379,0.000000,65535.000000,37932.680140,27631.856627,0.000000,65535.000000
2084.181,0.000,0.000,45816.277340,24434.727379,0.000000,65535.000000,37932.680140,27631.856627,0.000000,65535.000000
2085.190,0.000,0.000,45816.277340,24434.727379,0.000000,65535.000000,37932.680140,27631.856627,0.000000,65535.000000
2086.242,0.000,0.000,45816.277340,24434.727379,0.000000,65535.000000,37932.680140,27631.856627,0.000000,65535.000000
2087.249,0.000,0.000,45816.277340,24434.727379,0.000000,65535.000000,37932.680140,27631.856627,0.000000,65535.000000
2088.261,0.000,0.000,45816.277340,24434.727379,0.000000,65535.000000,37932.680140,27631.856627,0.000000,65535.000000
2089.268,0.000,0.000,45816.277340,24434.727379,0.000000,65535.000000,37932.680140,27631.856627,0.000000,65535.000000
2090.270,0.000,0.000,45816.277340,24434.727379,0.000000,65535.000000,37932.680140,27631.856627,0.000000,65535.000000
2091.318,0.000,0.000,45816.277340,24434.727379,0.000000,65535.000000,37932.680140,27631.856627,0.000000,65535.000000
2092.368,0.000,0.000,45816.277340,24434.727379,0.000000,65535.000000,37932.680140,27631.856627,0.000000,65535.000000
2093.382,0.000,0.000,45816.277340,24434.727379,0.000000,65535.000000,37932.680140,27631.856627,0.000000,65535.000000
2094.392,0.000,0.000,45816.277340,24434.727379,0.000000,65535.000000,37932.680140,27631.856627,0.000000,65535.000000
2095.407,0.000,0.000,45816.277340,24434.727379,0.000000,65535.000000,37932.680140,27631.856627,0.000000,65535.000000
2096.448,0.000,0.000,45816.277340,24434.727379,0.000000,65535.000000,37932.680140,27631.856627,0.000000,65535.000000
2097.451,0.000,0.000,45816.277340,24434.727379,0.000000,65535.000000,37932.680140,27631.856627,0.000000,65535.000000
2098.452,0.000,0.000,45816.277340,24434.727379,0.000000,65535.000000,37932.680140,27631.856627,0.000000,65535.000000
2099.467,0.000,0.000,45816.277340,24434.727379,0.000000,65535.000000,37932.680140,27631.856627,0.000000,65535.000000
2100.476,0.000,0.000,45816.277340,24434.727379,0.000000,65535.000000,37932.680140,27631.856627,0.000000,65535.000000
2101.478,0.000,0.000,45816.277340,24434.727379,0.000000,65535.000000,37932.680140,27631.856627,0.000000,65535.000000
2102.486,0.000,0.000,45816.277340,24434.727379,0.000000,65535.000000,37932.680140,27631.856627,0.000000,65535.000000
2103.494,0.000,0.000,45816.277340,24434.727379,0.000000,65535.000000,37932.680140,27631.856627,0.000000,65535.000000
2104.500,0.000,0.000,45816.277340,24434.727379,0.000000,65535.000000,37932.680140,27631.856627,0.000000,65535.000000
2105.505,0.000,0.000,45816.277340,24434.727379,0.000000,65535.000000,37932.680140,27631.856627,0.000000,65535.000000
2106.509,0.000,0.000,45816.277340,24434.727379,0.000000,65535.000000,37932.680140,27631.856627,0.000000,65535.000000
2107.523,0.000,0.000,45816.277340,24434.727379,0.000000,65535.000000,37932.680140,27631.856627,0.000000,65535.000000
2108.535,0.000,0.000,45816.277340,24434.727379,0.000000,65535.000000,37932.680140,27631.856627,0.000000,65535.000000
2109.546,0.000,0.000,45816.277340,24434.727379,0.000000,65535.000000,37932.680140,27631.856627,0.000000,65535.000000
2110.553,0.000,0.000,45816.277340,24434.727379,0.000000,65535.000000,37932.680140,27631.856627,0.000000,65535.000000
2111.604,0.000,0.000,45816.277340,24434.727379,0.000000,65535.000000,37932.680140,27631.856627,0.000000,65535.000000
2112.650,0.000,0.000,45816.277340,24434.727379,0.000000,65535.000000,37932.680140,27631.856627,0.000000,65535.000000
2113.661,0.000,0.000,45816.277340,24434.727379,0.000000,65535.000000,37932.680140,27631.856627,0.000000,65535.000000
2114.677,0.000,0.000,45816.277340,24434.727379,0.000000,65535.000000,37932.680140,27631.856627,0.000000,65535.000000
2115.679,0.000,0.000,45816.277340,24434.727379,0.000000,65535.000000,37932.680140,27631.856627,0.000000,65535.000000
2116.729,0.000,0.000,45816.277340,24434.727379,0.000000,65535.000000,37932.680140,27631.856627,0.000000,65535.000000
2117.742,0.000,0.000,45816.277340,24434.727379,0.000000,65535.000000,37932.680140,27631.856627,0.000000,65535.000000
2118.752,0.000,0.000,45816.277340,24434.727379,0.000000,65535.000000,37932.680140,27631.856627,0.000000,65535.000000
2119.761,0.000,0.000,45816.277340,24434.727379,0.000000,65535.000000,37932.680140,27631.856627,0.000000,65535.000000
2120.763,0.000,0.000,45816.277340,24434.727379,0.000000,65535.000000,37932.680140,27631.856627,0.000000,65535.000000
2121.814,0.000,0.000,45816.277340,24434.727379,0.000000,65535.000000,37932.680140,27631.856627,0.000000,65535.000000
2122.816,0.000,0.000,45816.277340,24434.727379,0.000000,65535.000000,37932.680140,27631.856627,0.000000,65535.000000
2123.825,0.000,0.000,45816.277340,24434.727379,0.000000,65535.000000,37932.680140,27631.856627,0.000000,65535.000000
2124.831,0.000,0.000,45816.277340,24434.727379,0.000000,65535.000000,37932.680140,27631.856627,0.000000,65535.000000
2125.870,0.000,0.000,45816.277340,24434.727379,0.000000,65535.000000,37932.680140,27631.856627,0.000000,65535.000000
2126.872,0.000,0.000,45816.277340,24434.727379,0.000000,65535.000000,37932.680140,27631.856627,0.000000,65535.000000
2127.879,0.000,0.000,45816.277340,24434.727379,0.000000,65535.000000,37932.680140,27631.856627,0.000000,65535.000000
2128.884,0.000,0.000,45816.277340,24434.727379,0.000000,65535.000000,37932.680140,27631.856627,0.000000,65535.000000
2129.895,0.000,0.000,45816.277340,24434.727379,0.000000,65535.000000,37932.680140,27631.856627,0.000000,65535.000000
2130.943,0.000,0.000,45816.277340,24434.727379,0.000000,65535.000000,37932.680140,27631.856627,0.000000,65535.000000
2131.951,0.000,0.000,45816.277340,24434.727379,0.000000,65535.000000,37932.680140,27631.856627,0.000000,65535.000000
2132.963,0.000,0.000,45816.277340,24434.727379,0.000000,65535.000000,37932.680140,27631.856627,0.000000,65535.000000
2133.964,0.000,0.000,45816.277340,24434.727379,0.000000,65535.000000,37932.680140,27631.856627,0.000000,65535.000000
2134.971,0.000,0.000,45816.277340,24434.727379,0.000000,65535.000000,37932.680140,27631.856627,0.000000,65535.000000
2136.014,0.000,0.000,45816.277340,24434.727379,0.000000,65535.000000,37932.680140,27631.856627,0.000000,65535.000000
2137.021,0.000,0.000,45816.277340,24434.727379,0.000000,65535.000000,37932.680140,27631.856627,0.000000,65535.000000
2138.075,0.000,0.000,45816.277340,24434.727379,0.000000,65535.000000,37932.680140,27631.856627,0.000000,65535.000000
2139.080,0.000,0.000,45816.277340,24434.727379,0.000000,65535.000000,37932.680140,27631.856627,0.000000,65535.000000
2140.083,0.000,0.000,45816.277340,24434.727379,0.000000,65535.000000,37932.680140,27631.856627,0.000000,65535.000000
2141.135,0.000,0.000,45816.277340,24434.727379,0.000000,65535.000000,37932.680140,27631.856627,0.000000,65535.000000
2142.136,0.000,0.000,45816.277340,24434.727379,0.000000,65535.000000,37932.680140,27631.856627,0.000000,65535.000000
2143.148,0.000,0.000,45816.277340,24434.727379,0.000000,65535.000000,37932.680140,27631.856627,0.000000,65535.000000
2144.159,0.000,0.000,45816.277340,24434.727379,0.000000,65535.000000,37932.680140,27631.856627,0.000000,65535.000000
2145.169,0.000,0.000,45816.277340,24434.727379,0.000000,65535.000000,37932.680140,27631.856627,0.000000,65535.000000
2146.218,0.000,0.000,45816.277340,24434.727379,0.000000,65535.000000,37932.680140,27631.856627,0.000000,65535.000000
2147.223,0.000,0.000,45816.277340,24434.727379,0.000000,65535.000000,37932.680140,27631.856627,0.000000,65535.000000
2148.231,0.000,0.000,45816.277340,24434.727379,0.000000,65535.000000,37932.680140,27631.856627,0.000000,65535.000000
2149.237,0.000,0.000,45816.277340,24434.727379,0.000000,65535.000000,37932.680140,27631.856627,0.000000,65535.000000
2150.248,0.000,0.000,45816.277340,24434.727379,0.000000,65535.000000,37932.680140,27631.856627,0.000000,65535.000000
2151.281,0.000,0.000,45816.277340,24434.727379,0.000000,65535.000000,37932.680140,27631.856627,0.000000,65535.000000
2152.336,0.000,0.000,45816.277340,24434.727379,0.000000,65535.000000,37932.680140,27631.856627,0.000000,65535.000000
2153.345,0.000,0.000,45816.277340,24434.727379,0.000000,65535.000000,37932.680140,27631.856627,0.000000,65535.000000
2154.355,0.000,0.000,45816.277340,24434.727379,0.000000,65535.000000,37932.680140,27631.856627,0.000000,65535.000000
2155.365,0.000,0.000,45816.277340,24434.727379,0.000000,65535.000000,37932.680140,27631.856627,0.000000,65535.000000
2156.419,0.000,0.000,45816.277340,24434.727379,0.000000,65535.000000,37932.680140,27631.856627,0.000000,65535.000000
2157.423,0.000,0.000,45816.277340,24434.727379,0.000000,65535.000000,37932.680140,27631.856627,0.000000,65535.000000
2158.427,0.000,0.000,45816.277340,24434.727379,0.000000,65535.000000,37932.680140,27631.856627,0.000000,65535.000000
2159.438,0.000,0.000,45816.277340,24434.727379,0.000000,65535.000000,37932.680140,27631.856627,0.000000,65535.000000
2160.448,0.000,0.000,45816.277340,24434.727379,0.000000,65535.000000,37932.680140,27631.856627,0.000000,65535.000000
2161.450,0.000,0.000,45816.277340,24434.727379,0.000000,65535.000000,37932.680140,27631.856627,0.000000,65535.000000
2162.462,0.000,0.000,45816.277340,24434.727379,0.000000,65535.000000,37932.680140,27631.856627,0.000000,65535.000000
2163.466,0.000,0.000,45816.277340,24434.727379,0.000000,65535.000000,37932.680140,27631.856627,0.000000,65535.000000
2164.470,0.000,0.000,45816.277340,24434.727379,0.000000,65535.000000,37932.680140,27631.856627,0.000000,65535.000000
2165.524,0.000,0.000,45816.277340,24434.727379,0.000000,65535.000000,37932.680140,27631.856627,0.000000,65535.000000
2166.579,0.000,0.000,45816.277340,24434.727379,0.000000,65535.000000,37932.680140,27631.856627,0.000000,65535.000000
2167.586,0.000,0.000,45816.277340,24434.727379,0.000000,65535.000000,37932.680140,27631.856627,0.000000,65535.000000
2168.598,0.000,0.000,45816.277340,24434.727379,0.000000,65535.000000,37932.680140,27631.856627,0.000000,65535.000000
2169.607,0.000,0.000,45816.277340,24434.727379,0.000000,65535.000000,37932.680140,27631.856627,0.000000,65535.000000
2170.619,0.000,0.000,45816.277340,24434.727379,0.000000,65535.000000,37932.680140,27631.856627,0.000000,65535.000000
2171.663,0.000,0.000,45816.277340,24434.727379,0.000000,65535.000000,37932.680140,27631.856627,0.000000,65535.000000
2172.675,0.000,0.000,45816.277340,24434.727379,0.000000,65535.000000,37932.680140,27631.856627,0.000000,65535.000000
2173.687,0.000,0.000,45816.277340,24434.727379,0.000000,65535.000000,37932.680140,27631.856627,0.000000,65535.000000
2174.701,0.000,0.000,45816.277340,24434.727379,0.000000,65535.000000,37932.680140,27631.856627,0.000000,65535.000000
2175.707,0.000,0.000,45816.277340,24434.727379,0.000000,65535.000000,37932.680140,27631.856627,0.000000,65535.000000
2176.755,0.000,0.000,45816.277340,24434.727379,0.000000,65535.000000,37932.680140,27631.856627,0.000000,65535.000000
2177.770,0.000,0.000,45816.277340,24434.727379,0.000000,65535.000000,37932.680140,27631.856627,0.000000,65535.000000
2178.772,0.000,0.000,45816.277340,24434.727379,0.000000,65535.000000,37932.680140,27631.856627,0.000000,65535.000000
2179.774,0.000,0.000,45816.277340,24434.727379,0.000000,65535.000000,37932.680140,27631.856627,0.000000,65535.000000
2180.775,0.000,0.000,45816.277340,24434.727379,0.000000,65535.000000,37932.680140,27631.856627,0.000000,65535.000000
2181.824,0.000,0.000,45816.277340,24434.727379,0.000000,65535.000000,37932.680140,27631.856627,0.000000,65535.000000
2182.826,0.000,0.000,45816.277340,24434.727379,0.000000,65535.000000,37932.680140,27631.856627,0.000000,65535.000000
2183.834,0.000,0.000,45816.277340,24434.727379,0.000000,65535.000000,37932.680140,27631.856627,0.000000,65535.000000
2184.837,0.000,0.000,45816.277340,24434.727379,0.000000,65535.000000,37932.680140,27631.856627,0.000000,65535.000000
2185.890,0.000,0.000,45816.277340,24434.727379,0.000000,65535.000000,37932.680140,27631.856627,0.000000,65535.000000
2186.896,0.000,0.000,45816.277340,24434.727379,0.000000,65535.000000,37932.680140,27631.856627,0.000000,65535.000000
2187.912,0.000,0.000,45816.277340,24434.727379,0.000000,65535.000000,37932.680140,27631.856627,0.000000,65535.000000
2188.962,0.000,0.000,45816.277340,24434.727379,0.000000,65535.000000,37932.680140,27631.856627,0.000000,65535.000000
2189.968,0.000,0.000,45816.277340,24434.727379,0.000000,65535.000000,37932.680140,27631.856627,0.000000,65535.000000
2191.017,0.000,0.000,45816.277340,24434.727379,0.000000,65535.000000,37932.680140,27631.856627,0.000000,65535.000000
2192.026,0.000,0.000,45816.277340,24434.727379,0.000000,65535.000000,37932.680140,27631.856627,0.000000,65535.000000
2193.036,0.000,0.000,45816.277340,24434.727379,0.000000,65535.000000,37932.680140,27631.856627,0.000000,65535.000000
2194.048,0.000,0.000,45816.277340,24434.727379,0.000000,65535.000000,37932.680140,27631.856627,0.000000,65535.000000
2195.055,0.000,0.000,45816.277340,24434.727379,0.000000,65535.000000,37932.680140,27631.856627,0.000000,65535.000000
2196.110,0.000,0.000,45816.277340,24434.727379,0.000000,65535.000000,37932.680140,27631.856627,0.000000,65535.000000
2197.118,0.000,0.000,45816.277340,24434.727379,0.000000,65535.000000,37932.680140,27631.856627,0.000000,65535.000000
2198.120,0.000,0.000,45816.277340,24434.727379,0.000000,65535.000000,37932.680140,27631.856627,0.000000,65535.000000
2199.133,0.000,0.000,45816.277340,24434.727379,0.000000,65535.000000,37932.680140,27631.856627,0.000000,65535.000000
2200.142,0.000,0.000,45816.277340,24434.727379,0.000000,65535.000000,37932.680140,27631.856627,0.000000,65535.000000
2201.142,0.000,0.000,45816.277340,24434.727379,0.000000,65535.000000,37932.680140,27631.856627,0.000000,65535.000000
2202.144,0.000,0.000,45816.277340,24434.727379,0.000000,65535.000000,37932.680140,27631.856627,0.000000,65535.000000
2203.195,0.000,0.000,45816.277340,24434.727379,0.000000,65535.000000,37932.680140,27631.856627,0.000000,65535.000000
2204.206,0.000,0.000,45816.277340,24434.727379,0.000000,65535.000000,37932.680140,27631.856627,0.000000,65535.000000
2205.213,0.000,0.000,45816.277340,24434.727379,0.000000,65535.000000,37932.680140,27631.856627,0.000000,65535.000000
2206.262,0.000,0.000,45816.277340,24434.727379,0.000000,65535.000000,37932.680140,27631.856627,0.000000,65535.000000
2207.265,0.000,0.000,45816.277340,24434.727379,0.000000,65535.000000,37932.680140,27631.856627,0.000000,65535.000000
2208.268,0.000,0.000,45816.277340,24434.727379,0.000000,65535.000000,37932.680140,27631.856627,0.000000,65535.000000
2209.271,0.000,0.000,45816.277340,24434.727379,0.000000,65535.000000,37932.680140,27631.856627,0.000000,65535.000000
2210.274,0.000,0.000,45816.277340,24434.727379,0.000000,65535.000000,37932.680140,27631.856627,0.000000,65535.000000
2211.309,0.000,0.000,45816.277340,24434.727379,0.000000,65535.000000,37932.680140,27631.856627,0.000000,65535.000000
2212.355,0.000,0.000,45816.277340,24434.727379,0.000000,65535.000000,37932.680140,27631.856627,0.000000,65535.000000
2213.367,0.000,0.000,45816.277340,24434.727379,0.000000,65535.000000,37932.680140,27631.856627,0.000000,65535.000000
2214.418,0.000,0.000,45816.277340,24434.727379,0.000000,65535.000000,37932.680140,27631.856627,0.000000,65535.000000
2215.472,0.000,0.000,45816.277340,24434.727379,0.000000,65535.000000,37932.680140,27631.856627,0.000000,65535.000000
2216.509,0.000,0.000,45816.277340,24434.727379,0.000000,65535.000000,37932.680140,27631.856627,0.000000,65535.000000
2217.550,0.000,0.000,45816.277340,24434.727379,0.000000,65535.000000,37932.680140,27631.856627,0.000000,65535.000000
2218.600,0.000,0.000,45816.277340,24434.727379,0.000000,65535.000000,37932.680140,27631.856627,0.000000,65535.000000
2219.600,0.000,0.000,45816.277340,24434.727379,0.000000,65535.000000,37932.680140,27631.856627,0.000000,65535.000000
2220.604,0.000,0.000,45816.277340,24434.727379,0.000000,65535.000000,37932.680140,27631.856627,0.000000,65535.000000
2221.638,0.000,0.000,45816.277340,24434.727379,0.000000,65535.000000,37932.680140,27631.856627,0.000000,65535.000000
2222.692,0.000,0.000,45816.277340,24434.727379,0.000000,65535.000000,37932.680140,27631.856627,0.000000,65535.000000
2223.695,0.000,0.000,45816.277340,24434.727379,0.000000,65535.000000,37932.680140,27631.856627,0.000000,65535.000000
2224.696,0.000,0.000,45816.277340,24434.727379,0.000000,65535.000000,37932.680140,27631.856627,0.000000,65535.000000
2225.743,0.000,0.000,45816.277340,24434.727379,0.000000,65535.000000,37932.680140,27631.856627,0.000000,65535.000000
2226.785,0.000,0.000,45816.277340,24434.727379,0.000000,65535.000000,37932.680140,27631.856627,0.000000,65535.000000
2227.835,0.000,0.000,45816.277340,24434.727379,0.000000,65535.000000,37932.680140,27631.856627,0.000000,65535.000000
2228.889,0.000,0.000,45816.277340,24434.727379,0.000000,65535.000000,37932.680140,27631.856627,0.000000,65535.000000
2229.937,0.000,0.000,45816.277340,24434.727379,0.000000,65535.000000,37932.680140,27631.856627,0.000000,65535.000000
2230.980,0.000,0.000,45816.277340,24434.727379,0.000000,65535.000000,37932.680140,27631.856627,0.000000,65535.000000
2232.029,0.000,0.000,45816.277340,24434.727379,0.000000,65535.000000,37932.680140,27631.856627,0.000000,65535.000000
2233.076,0.000,0.000,45816.277340,24434.727379,0.000000,65535.000000,37932.680140,27631.856627,0.000000,65535.000000
2234.076,0.000,0.000,45816.277340,24434.727379,0.000000,65535.000000,37932.680140,27631.856627,0.000000,65535.000000
2235.124,0.000,0.000,45816.277340,24434.727379,0.000000,65535.000000,37932.680140,27631.856627,0.000000,65535.000000
2236.179,0.000,0.000,45816.277340,24434.727379,0.000000,65535.000000,37932.680140,27631.856627,0.000000,65535.000000
2237.183,0.000,0.000,45816.277340,24434.727379,0.000000,65535.000000,37932.680140,27631.856627,0.000000,65535.000000
2238.190,0.000,0.000,45816.277340,24434.727379,0.000000,65535.000000,37932.680140,27631.856627,0.000000,65535.000000
2239.194,0.000,0.000,45816.277340,24434.727379,0.000000,65535.000000,37932.680140,27631.856627,0.000000,65535.000000
2240.202,0.000,0.000,45816.277340,24434.727379,0.000000,65535.000000,37932.680140,27631.856627,0.000000,65535.000000
2241.257,0.000,0.000,45816.277340,24434.727379,0.000000,65535.000000,37932.680140,27631.856627,0.000000,65535.000000
2242.265,0.000,0.000,45816.277340,24434.727379,0.000000,65535.000000,37932.680140,27631.856627,0.000000,65535.000000
2243.315,0.000,0.000,45816.277340,24434.727379,0.000000,65535.000000,37932.680140,27631.856627,0.000000,65535.000000
2244.320,0.000,0.000,45816.277340,24434.727379,0.000000,65535.000000,37932.680140,27631.856627,0.000000,65535.000000
2245.327,0.000,0.000,45816.277340,24434.727379,0.000000,65535.000000,37932.680140,27631.856627,0.000000,65535.000000
2246.376,0.000,0.000,45816.277340,24434.727379,0.000000,65535.000000,37932.680140,27631.856627,0.000000,65535.000000
2247.381,0.000,0.000,45816.277340,24434.727379,0.000000,65535.000000,37932.680140,27631.856627,0.000000,65535.000000
2248.384,0.000,0.000,45816.277340,24434.727379,0.000000,65535.000000,37932.680140,27631.856627,0.000000,65535.000000
2249.393,0.000,0.000,45816.277340,24434.727379,0.000000,65535.000000,37932.680140,27631.856627,0.000000,65535.000000
2250.402,0.000,0.000,45816.277340,24434.727379,0.000000,65535.000000,37932.680140,27631.856627,0.000000,65535.000000
2251.457,0.000,0.000,45816.277340,24434.727379,0.000000,65535.000000,37932.680140,27631.856627,0.000000,65535.000000
2252.467,0.000,0.000,45816.277340,24434.727379,0.000000,65535.000000,37932.680140,27631.856627,0.000000,65535.000000
2253.477,0.000,0.000,45816.277340,24434.727379,0.000000,65535.000000,37932.680140,27631.856627,0.000000,65535.000000
2254.489,0.000,0.000,45816.277340,24434.727379,0.000000,65535.000000,37932.680140,27631.856627,0.000000,65535.000000
2255.491,0.000,0.000,45816.277340,24434.727379,0.000000,65535.000000,37932.680140,27631.856627,0.000000,65535.000000
2256.492,0.000,0.000,45816.277340,24434.727379,0.000000,65535.000000,37932.680140,27631.856627,0.000000,65535.000000
2257.497,0.000,0.000,45816.277340,24434.727379,0.000000,65535.000000,37932.680140,27631.856627,0.000000,65535.000000
2258.506,0.000,0.000,45816.277340,24434.727379,0.000000,65535.000000,37932.680140,27631.856627,0.000000,65535.000000
2259.514,0.000,0.000,45816.277340,24434.727379,0.000000,65535.000000,37932.680140,27631.856627,0.000000,65535.000000
2260.519,0.000,0.000,45816.277340,24434.727379,0.000000,65535.000000,37932.680140,27631.856627,0.000000,65535.000000
2261.520,0.000,0.000,45816.277340,24434.727379,0.000000,65535.000000,37932.680140,27631.856627,0.000000,65535.000000
2262.574,0.000,0.000,45816.277340,24434.727379,0.000000,65535.000000,37932.680140,27631.856627,0.000000,65535.000000
2263.584,0.000,0.000,45816.277340,24434.727379,0.000000,65535.000000,37932.680140,27631.856627,0.000000,65535.000000
2264.591,0.000,0.000,45816.277340,24434.727379,0.000000,65535.000000,37932.680140,27631.856627,0.000000,65535.000000
2265.601,0.000,0.000,45816.277340,24434.727379,0.000000,65535.000000,37932.680140,27631.856627,0.000000,65535.000000
2266.606,0.000,0.000,45816.277340,24434.727379,0.000000,65535.000000,37932.680140,27631.856627,0.000000,65535.000000
2267.622,0.000,0.000,45816.277340,24434.727379,0.000000,65535.000000,37932.680140,27631.856627,0.000000,65535.000000
2268.629,0.000,0.000,45816.277340,24434.727379,0.000000,65535.000000,37932.680140,27631.856627,0.000000,65535.000000
2269.630,0.000,0.000,45816.277340,24434.727379,0.000000,65535.000000,37932.680140,27631.856627,0.000000,65535.000000
2270.677,0.000,0.000,45816.277340,24434.727379,0.000000,65535.000000,37932.680140,27631.856627,0.000000,65535.000000
2271.717,0.000,0.000,45816.277340,24434.727379,0.000000,65535.000000,37932.680140,27631.856627,0.000000,65535.000000
2272.720,0.000,0.000,45816.277340,24434.727379,0.000000,65535.000000,37932.680140,27631.856627,0.000000,65535.000000
2273.774,0.000,0.000,45816.277340,24434.727379,0.000000,65535.000000,37932.680140,27631.856627,0.000000,65535.000000
2274.778,0.000,0.000,45816.277340,24434.727379,0.000000,65535.000000,37932.680140,27631.856627,0.000000,65535.000000
2275.830,0.000,0.000,45816.277340,24434.727379,0.000000,65535.000000,37932.680140,27631.856627,0.000000,65535.000000
2276.873,0.000,0.000,45816.277340,24434.727379,0.000000,65535.000000,37932.680140,27631.856627,0.000000,65535.000000
2277.885,0.000,0.000,45816.277340,24434.727379,0.000000,65535.000000,37932.680140,27631.856627,0.000000,65535.000000
2278.926,0.000,0.000,45816.277340,24434.727379,0.000000,65535.000000,37932.680140,27631.856627,0.000000,65535.000000
2279.933,0.000,0.000,45816.277340,24434.727379,0.000000,65535.000000,37932.680140,27631.856627,0.000000,65535.000000
2280.987,0.000,0.000,45816.277340,24434.727379,0.000000,65535.000000,37932.680140,27631.856627,0.000000,65535.000000
2281.995,0.000,0.000,45816.277340,24434.727379,0.000000,65535.000000,37932.680140,27631.856627,0.000000,65535.000000
2282.996,0.000,0.000,45816.277340,24434.727379,0.000000,65535.000000,37932.680140,27631.856627,0.000000,65535.000000
2284.004,0.000,0.000,45816.277340,24434.727379,0.000000,65535.000000,37932.680140,27631.856627,0.000000,65535.000000
2285.013,0.000,0.000,45816.277340,24434.727379,0.000000,65535.000000,37932.680140,27631.856627,0.000000,65535.000000
2286.067,0.000,0.000,45816.277340,24434.727379,0.000000,65535.000000,37932.680140,27631.856627,0.000000,65535.000000
2287.071,0.000,0.000,45816.277340,24434.727379,0.000000,65535.000000,37932.680140,27631.856627,0.000000,65535.000000
2288.077,0.000,0.000,45816.277340,24434.727379,0.000000,65535.000000,37932.680140,27631.856627,0.000000,65535.000000
2289.084,0.000,0.000,45816.277340,24434.727379,0.000000,65535.000000,37932.680140,27631.856627,0.000000,65535.000000
2290.090,0.000,0.000,45816.277340,24434.727379,0.000000,65535.000000,37932.680140,27631.856627,0.000000,65535.000000
2291.142,0.000,0.000,45816.277340,24434.727379,0.000000,65535.000000,37932.680140,27631.856627,0.000000,65535.000000
2292.194,0.000,0.000,45816.277340,24434.727379,0.000000,65535.000000,37932.680140,27631.856627,0.000000,65535.000000
2293.205,0.000,0.000,45816.277340,24434.727379,0.000000,65535.000000,37932.680140,27631.856627,0.000000,65535.000000
2294.214,0.000,0.000,45816.277340,24434.727379,0.000000,65535.000000,37932.680140,27631.856627,0.000000,65535.000000
2295.215,0.000,0.000,45816.277340,24434.727379,0.000000,65535.000000,37932.680140,27631.856627,0.000000,65535.000000
2296.268,0.000,0.000,45816.277340,24434.727379,0.000000,65535.000000,37932.680140,27631.856627,0.000000,65535.000000
2297.272,0.000,0.000,45816.277340,24434.727379,0.000000,65535.000000,37932.680140,27631.856627,0.000000,65535.000000
2298.282,0.000,0.000,45816.277340,24434.727379,0.000000,65535.000000,37932.680140,27631.856627,0.000000,65535.000000
2299.293,0.000,0.000,45816.277340,24434.727379,0.000000,65535.000000,37932.680140,27631.856627,0.000000,65535.000000
2300.299,0.000,0.000,45816.277340,24434.727379,0.000000,65535.000000,37932.680140,27631.856627,0.000000,65535.000000
2301.355,0.000,0.000,45816.277340,24434.727379,0.000000,65535.000000,37932.680140,27631.856627,0.000000,65535.000000
2302.366,0.000,0.000,45816.277340,24434.727379,0.000000,65535.000000,37932.680140,27631.856627,0.000000,65535.000000
2303.366,0.000,0.000,45816.277340,24434.727379,0.000000,65535.000000,37932.680140,27631.856627,0.000000,65535.000000
2304.379,0.000,0.000,45816.277340,24434.727379,0.000000,65535.000000,37932.680140,27631.856627,0.000000,65535.000000
2305.382,0.000,0.000,45816.277340,24434.727379,0.000000,65535.000000,37932.680140,27631.856627,0.000000,65535.000000
2306.434,0.000,0.000,45816.277340,24434.727379,0.000000,65535.000000,37932.680140,27631.856627,0.000000,65535.000000
2307.440,0.000,0.000,45816.277340,24434.727379,0.000000,65535.000000,37932.680140,27631.856627,0.000000,65535.000000
2308.490,0.000,0.000,45816.277340,24434.727379,0.000000,65535.000000,37932.680140,27631.856627,0.000000,65535.000000
2309.501,0.000,0.000,45816.277340,24434.727379,0.000000,65535.000000,37932.680140,27631.856627,0.000000,65535.000000
2310.509,0.000,0.000,45816.277340,24434.727379,0.000000,65535.000000,37932.680140,27631.856627,0.000000,65535.000000
2311.560,0.000,0.000,45816.277340,24434.727379,0.000000,65535.000000,37932.680140,27631.856627,0.000000,65535.000000
2312.565,0.000,0.000,45816.277340,24434.727379,0.000000,65535.000000,37932.680140,27631.856627,0.000000,65535.000000
2313.576,0.000,0.000,45816.277340,24434.727379,0.000000,65535.000000,37932.680140,27631.856627,0.000000,65535.000000
2314.586,0.000,0.000,45816.277340,24434.727379,0.000000,65535.000000,37932.680140,27631.856627,0.000000,65535.000000
2315.593,0.000,0.000,45816.277340,24434.727379,0.000000,65535.000000,37932.680140,27631.856627,0.000000,65535.000000
2316.595,0.000,0.000,45816.277340,24434.727379,0.000000,65535.000000,37932.680140,27631.856627,0.000000,65535.000000
2317.602,0.000,0.000,45816.277340,24434.727379,0.000000,65535.000000,37932.680140,27631.856627,0.000000,65535.000000
2318.607,0.000,0.000,45816.277340,24434.727379,0.000000,65535.000000,37932.680140,27631.856627,0.000000,65535.000000
2319.619,0.000,0.000,45816.277340,24434.727379,0.000000,65535.000000,37932.680140,27631.856627,0.000000,65535.000000
2320.627,0.000,0.000,45816.277340,24434.727379,0.000000,65535.000000,37932.680140,27631.856627,0.000000,65535.000000
2321.679,0.000,0.000,45816.277340,24434.727379,0.000000,65535.000000,37932.680140,27631.856627,0.000000,65535.000000
2322.685,0.000,0.000,45816.277340,24434.727379,0.000000,65535.000000,37932.680140,27631.856627,0.000000,65535.000000
2323.695,0.000,0.000,45816.277340,24434.727379,0.000000,65535.000000,37932.680140,27631.856627,0.000000,65535.000000
2324.707,0.000,0.000,45816.277340,24434.727379,0.000000,65535.000000,37932.680140,27631.856627,0.000000,65535.000000
2325.718,0.000,0.000,45816.277340,24434.727379,0.000000,65535.000000,37932.680140,27631.856627,0.000000,65535.000000
2326.763,0.000,0.000,45816.277340,24434.727379,0.000000,65535.000000,37932.680140,27631.856627,0.000000,65535.000000
2327.768,0.000,0.000,45816.277340,24434.727379,0.000000,65535.000000,37932.680140,27631.856627,0.000000,65535.000000
2328.774,0.000,0.000,45816.277340,24434.727379,0.000000,65535.000000,37932.680140,27631.856627,0.000000,65535.000000
2329.781,0.000,0.000,45816.277340,24434.727379,0.000000,65535.000000,37932.680140,27631.856627,0.000000,65535.000000
2330.829,0.000,0.000,45816.277340,24434.727379,0.000000,65535.000000,37932.680140,27631.856627,0.000000,65535.000000
2331.874,0.000,0.000,45816.277340,24434.727379,0.000000,65535.000000,37932.680140,27631.856627,0.000000,65535.000000
2332.927,0.000,0.000,45816.277340,24434.727379,0.000000,65535.000000,37932.680140,27631.856627,0.000000,65535.000000
2333.935,0.000,0.000,45816.277340,24434.727379,0.000000,65535.000000,37932.680140,27631.856627,0.000000,65535.000000
2334.940,0.000,0.000,45816.277340,24434.727379,0.000000,65535.000000,37932.680140,27631.856627,0.000000,65535.000000
2335.987,0.000,0.000,45816.277340,24434.727379,0.000000,65535.000000,37932.680140,27631.856627,0.000000,65535.000000
2337.031,0.000,0.000,45816.277340,24434.727379,0.000000,65535.000000,37932.680140,27631.856627,0.000000,65535.000000
2338.031,0.000,0.000,45816.277340,24434.727379,0.000000,65535.000000,37932.680140,27631.856627,0.000000,65535.000000
2339.036,0.000,0.000,45816.277340,24434.727379,0.000000,65535.000000,37932.680140,27631.856627,0.000000,65535.000000
2340.050,0.000,0.000,45816.277340,24434.727379,0.000000,65535.000000,37932.680140,27631.856627,0.000000,65535.000000
2341.053,0.000,0.000,45816.277340,24434.727379,0.000000,65535.000000,37932.680140,27631.856627,0.000000,65535.000000
2342.064,0.000,0.000,45816.277340,24434.727379,0.000000,65535.000000,37932.680140,27631.856627,0.000000,65535.000000
2343.073,0.000,0.000,45816.277340,24434.727379,0.000000,65535.000000,37932.680140,27631.856627,0.000000,65535.000000
2344.078,0.000,0.000,45816.277340,24434.727379,0.000000,65535.000000,37932.680140,27631.856627,0.000000,65535.000000
2345.088,0.000,0.000,45816.277340,24434.727379,0.000000,65535.000000,37932.680140,27631.856627,0.000000,65535.000000
2346.138,0.000,0.000,45816.277340,24434.727379,0.000000,65535.000000,37932.680140,27631.856627,0.000000,65535.000000
2347.151,0.000,0.000,45816.277340,24434.727379,0.000000,65535.000000,37932.680140,27631.856627,0.000000,65535.000000
2348.158,0.000,0.000,45816.277340,24434.727379,0.000000,65535.000000,37932.680140,27631.856627,0.000000,65535.000000
2349.163,0.000,0.000,45816.277340,24434.727379,0.000000,65535.000000,37932.680140,27631.856627,0.000000,65535.000000
2350.167,0.000,0.000,45816.277340,24434.727379,0.000000,65535.000000,37932.680140,27631.856627,0.000000,65535.000000
2351.217,0.000,0.000,45816.277340,24434.727379,0.000000,65535.000000,37932.680140,27631.856627,0.000000,65535.000000
2352.218,0.000,0.000,45816.277340,24434.727379,0.000000,65535.000000,37932.680140,27631.856627,0.000000,65535.000000
2353.225,0.000,0.000,45816.277340,24434.727379,0.000000,65535.000000,37932.680140,27631.856627,0.000000,65535.000000
2354.233,0.000,0.000,45816.277340,24434.727379,0.000000,65535.000000,37932.680140,27631.856627,0.000000,65535.000000
2355.241,0.000,0.000,45816.277340,24434.727379,0.000000,65535.000000,37932.680140,27631.856627,0.000000,65535.000000
2356.291,0.000,0.000,45816.277340,24434.727379,0.000000,65535.000000,37932.680140,27631.856627,0.000000,65535.000000
2357.303,0.000,0.000,45816.277340,24434.727379,0.000000,65535.000000,37932.680140,27631.856627,0.000000,65535.000000
2358.315,0.000,0.000,45816.277340,24434.727379,0.000000,65535.000000,37932.680140,27631.856627,0.000000,65535.000000
2359.322,0.000,0.000,45816.277340,24434.727379,0.000000,65535.000000,37932.680140,27631.856627,0.000000,65535.000000
2360.325,0.000,0.000,45816.277340,24434.727379,0.000000,65535.000000,37932.680140,27631.856627,0.000000,65535.000000
2361.377,0.000,0.000,45816.277340,24434.727379,0.000000,65535.000000,37932.680140,27631.856627,0.000000,65535.000000
2362.384,0.000,0.000,45816.277340,24434.727379,0.000000,65535.000000,37932.680140,27631.856627,0.000000,65535.000000
2363.386,0.000,0.000,45816.277340,24434.727379,0.000000,65535.000000,37932.680140,27631.856627,0.000000,65535.000000
2364.392,0.000,0.000,45816.277340,24434.727379,0.000000,65535.000000,37932.680140,27631.856627,0.000000,65535.000000
2365.396,0.000,0.000,45816.277340,24434.727379,0.000000,65535.000000,37932.680140,27631.856627,0.000000,65535.000000
2366.450,0.000,0.000,45816.277340,24434.727379,0.000000,65535.000000,37932.680140,27631.856627,0.000000,65535.000000
2367.455,0.000,0.000,45816.277340,24434.727379,0.000000,65535.000000,37932.680140,27631.856627,0.000000,65535.000000
2368.462,0.000,0.000,45816.277340,24434.727379,0.000000,65535.000000,37932.680140,27631.856627,0.000000,65535.000000
2369.472,0.000,0.000,45816.277340,24434.727379,0.000000,65535.000000,37932.680140,27631.856627,0.000000,65535.000000
2370.485,0.000,0.000,45816.277340,24434.727379,0.000000,65535.000000,37932.680140,27631.856627,0.000000,65535.000000
2371.532,0.000,0.000,45816.277340,24434.727379,0.000000,65535.000000,37932.680140,27631.856627,0.000000,65535.000000
2372.541,0.000,0.000,45816.277340,24434.727379,0.000000,65535.000000,37932.680140,27631.856627,0.000000,65535.000000
2373.549,0.000,0.000,45816.277340,24434.727379,0.000000,65535.000000,37932.680140,27631.856627,0.000000,65535.000000
2374.563,0.000,0.000,45816.277340,24434.727379,0.000000,65535.000000,37932.680140,27631.856627,0.000000,65535.000000
2375.565,0.000,0.000,45816.277340,24434.727379,0.000000,65535.000000,37932.680140,27631.856627,0.000000,65535.000000
2376.565,0.000,0.000,45816.277340,24434.727379,0.000000,65535.000000,37932.680140,27631.856627,0.000000,65535.000000
2377.577,0.000,0.000,45816.277340,24434.727379,0.000000,65535.000000,37932.680140,27631.856627,0.000000,65535.000000
2378.593,0.000,0.000,45816.277340,24434.727379,0.000000,65535.000000,37932.680140,27631.856627,0.000000,65535.000000
2379.594,0.000,0.000,45816.277340,24434.727379,0.000000,65535.000000,37932.680140,27631.856627,0.000000,65535.000000
2380.606,0.000,0.000,45816.277340,24434.727379,0.000000,65535.000000,37932.680140,27631.856627,0.000000,65535.000000
2381.609,0.000,0.000,45816.277340,24434.727379,0.000000,65535.000000,37932.680140,27631.856627,0.000000,65535.000000
2382.609,0.000,0.000,45816.277340,24434.727379,0.000000,65535.000000,37932.680140,27631.856627,0.000000,65535.000000
2383.622,0.000,0.000,45816.277340,24434.727379,0.000000,65535.000000,37932.680140,27631.856627,0.000000,65535.000000
2384.665,0.000,0.000,45816.277340,24434.727379,0.000000,65535.000000,37932.680140,27631.856627,0.000000,65535.000000
2385.678,0.000,0.000,45816.277340,24434.727379,0.000000,65535.000000,37932.680140,27631.856627,0.000000,65535.000000
2386.681,0.000,0.000,45816.277340,24434.727379,0.000000,65535.000000,37932.680140,27631.856627,0.000000,65535.000000
2387.692,0.000,0.000,45816.277340,24434.727379,0.000000,65535.000000,37932.680140,27631.856627,0.000000,65535.000000
2388.703,0.000,0.000,45816.277340,24434.727379,0.000000,65535.000000,37932.680140,27631.856627,0.000000,65535.000000
2389.714,0.000,0.000,45816.277340,24434.727379,0.000000,65535.000000,37932.680140,27631.856627,0.000000,65535.000000
2390.719,0.000,0.000,45816.277340,24434.727379,0.000000,65535.000000,37932.680140,27631.856627,0.000000,65535.000000
2391.767,0.000,0.000,45816.277340,24434.727379,0.000000,65535.000000,37932.680140,27631.856627,0.000000,65535.000000
2392.776,0.000,0.000,45816.277340,24434.727379,0.000000,65535.000000,37932.680140,27631.856627,0.000000,65535.000000
2393.830,0.000,0.000,45816.277340,24434.727379,0.000000,65535.000000,37932.680140,27631.856627,0.000000,65535.000000
2394.835,0.000,0.000,45816.277340,24434.727379,0.000000,65535.000000,37932.680140,27631.856627,0.000000,65535.000000
2395.836,0.000,0.000,45816.277340,24434.727379,0.000000,65535.000000,37932.680140,27631.856627,0.000000,65535.000000
2396.877,0.000,0.000,45816.277340,24434.727379,0.000000,65535.000000,37932.680140,27631.856627,0.000000,65535.000000
2397.886,0.000,0.000,45816.277340,24434.727379,0.000000,65535.000000,37932.680140,27631.856627,0.000000,65535.000000
2398.886,0.000,0.000,45816.277340,24434.727379,0.000000,65535.000000,37932.680140,27631.856627,0.000000,65535.000000
2399.891,0.000,0.000,45816.277340,24434.727379,0.000000,65535.000000,37932.680140,27631.856627,0.000000,65535.000000
2400.942,0.000,0.000,45816.277340,24434.727379,0.000000,65535.000000,37932.680140,27631.856627,0.000000,65535.000000
2401.942,0.000,0.000,45816.277340,24434.727379,0.000000,65535.000000,37932.680140,27631.856627,0.000000,65535.000000
2402.945,0.000,0.000,45816.277340,24434.727379,0.000000,65535.000000,37932.680140,27631.856627,0.000000,65535.000000
2403.952,0.000,0.000,45816.277340,24434.727379,0.000000,65535.000000,37932.680140,27631.856627,0.000000,65535.000000
2404.960,0.000,0.000,45816.277340,24434.727379,0.000000,65535.000000,37932.680140,27631.856627,0.000000,65535.000000
2406.012,0.000,0.000,45816.277340,24434.727379,0.000000,65535.000000,37932.680140,27631.856627,0.000000,65535.000000
2407.019,0.000,0.000,45816.277340,24434.727379,0.000000,65535.000000,37932.680140,27631.856627,0.000000,65535.000000
2408.029,0.000,0.000,45816.277340,24434.727379,0.000000,65535.000000,37932.680140,27631.856627,0.000000,65535.000000
2409.038,0.000,0.000,45816.277340,24434.727379,0.000000,65535.000000,37932.680140,27631.856627,0.000000,65535.000000
2410.048,0.000,0.000,45816.277340,24434.727379,0.000000,65535.000000,37932.680140,27631.856627,0.000000,65535.000000
2411.097,0.000,0.000,45816.277340,24434.727379,0.000000,65535.000000,37932.680140,27631.856627,0.000000,65535.000000
2412.099,0.000,0.000,45816.277340,24434.727379,0.000000,65535.000000,37932.680140,27631.856627,0.000000,65535.000000
2413.111,0.000,0.000,45816.277340,24434.727379,0.000000,65535.000000,37932.680140,27631.856627,0.000000,65535.000000
2414.114,0.000,0.000,45816.277340,24434.727379,0.000000,65535.000000,37932.680140,27631.856627,0.000000,65535.000000
2415.122,0.000,0.000,45816.277340,24434.727379,0.000000,65535.000000,37932.680140,27631.856627,0.000000,65535.000000
2416.166,0.000,0.000,45816.277340,24434.727379,0.000000,65535.000000,37932.680140,27631.856627,0.000000,65535.000000
2417.176,0.000,0.000,45816.277340,24434.727379,0.000000,65535.000000,37932.680140,27631.856627,0.000000,65535.000000
2418.185,0.000,0.000,45816.277340,24434.727379,0.000000,65535.000000,37932.680140,27631.856627,0.000000,65535.000000
2419.191,0.000,0.000,45816.277340,24434.727379,0.000000,65535.000000,37932.680140,27631.856627,0.000000,65535.000000
2420.201,0.000,0.000,45816.277340,24434.727379,0.000000,65535.000000,37932.680140,27631.856627,0.000000,65535.000000
2421.254,0.000,0.000,45816.277340,24434.727379,0.000000,65535.000000,37932.680140,27631.856627,0.000000,65535.000000
2422.266,0.000,0.000,45816.277340,24434.727379,0.000000,65535.000000,37932.680140,27631.856627,0.000000,65535.000000
2423.318,0.000,0.000,45816.277340,24434.727379,0.000000,65535.000000,37932.680140,27631.856627,0.000000,65535.000000
2424.327,0.000,0.000,45816.277340,24434.727379,0.000000,65535.000000,37932.680140,27631.856627,0.000000,65535.000000
2425.328,0.000,0.000,45816.277340,24434.727379,0.000000,65535.000000,37932.680140,27631.856627,0.000000,65535.000000
2426.384,0.000,0.000,45816.277340,24434.727379,0.000000,65535.000000,37932.680140,27631.856627,0.000000,65535.000000
2427.392,0.000,0.000,45816.277340,24434.727379,0.000000,65535.000000,37932.680140,27631.856627,0.000000,65535.000000
2428.395,0.000,0.000,45816.277340,24434.727379,0.000000,65535.000000,37932.680140,27631.856627,0.000000,65535.000000
2429.397,0.000,0.000,45816.277340,24434.727379,0.000000,65535.000000,37932.680140,27631.856627,0.000000,65535.000000
2430.402,0.000,0.000,45816.277340,24434.727379,0.000000,65535.000000,37932.680140,27631.856627,0.000000,65535.000000
2431.404,0.000,0.000,45816.277340,24434.727379,0.000000,65535.000000,37932.680140,27631.856627,0.000000,65535.000000
2432.457,0.000,0.000,45816.277340,24434.727379,0.000000,65535.000000,37932.680140,27631.856627,0.000000,65535.000000
2433.467,0.000,0.000,45816.277340,24434.727379,0.000000,65535.000000,37932.680140,27631.856627,0.000000,65535.000000
2434.469,0.000,0.000,45816.277340,24434.727379,0.000000,65535.000000,37932.680140,27631.856627,0.000000,65535.000000
2435.473,0.000,0.000,45816.277340,24434.727379,0.000000,65535.000000,37932.680140,27631.856627,0.000000,65535.000000
2436.526,0.000,0.000,45816.277340,24434.727379,0.000000,65535.000000,37932.680140,27631.856627,0.000000,65535.000000
2437.537,0.000,0.000,45816.277340,24434.727379,0.000000,65535.000000,37932.680140,27631.856627,0.000000,65535.000000
2438.549,0.000,0.000,45816.277340,24434.727379,0.000000,65535.000000,37932.680140,27631.856627,0.000000,65535.000000
2439.563,0.000,0.000,45816.277340,24434.727379,0.000000,65535.000000,37932.680140,27631.856627,0.000000,65535.000000
2440.570,0.000,0.000,45816.277340,24434.727379,0.000000,65535.000000,37932.680140,27631.856627,0.000000,65535.000000
2441.619,0.000,0.000,45816.277340,24434.727379,0.000000,65535.000000,37932.680140,27631.856627,0.000000,65535.000000
2442.619,0.000,0.000,45816.277340,24434.727379,0.000000,65535.000000,37932.680140,27631.856627,0.000000,65535.000000
2443.636,0.000,0.000,45816.277340,24434.727379,0.000000,65535.000000,37932.680140,27631.856627,0.000000,65535.000000
2444.655,0.000,0.000,45816.277340,24434.727379,0.000000,65535.000000,37932.680140,27631.856627,0.000000,65535.000000
2445.680,0.000,0.000,45816.277340,24434.727379,0.000000,65535.000000,37932.680140,27631.856627,0.000000,65535.000000
2446.696,0.000,0.000,45816.277340,24434.727379,0.000000,65535.000000,37932.680140,27631.856627,0.000000,65535.000000
2447.715,0.000,0.000,45816.277340,24434.727379,0.000000,65535.000000,37932.680140,27631.856627,0.000000,65535.000000
2448.740,0.000,0.000,45816.277340,24434.727379,0.000000,65535.000000,37932.680140,27631.856627,0.000000,65535.000000
2449.763,0.000,0.000,45816.277340,24434.727379,0.000000,65535.000000,37932.680140,27631.856627,0.000000,65535.000000
2450.783,0.000,0.000,45816.277340,24434.727379,0.000000,65535.000000,37932.680140,27631.856627,0.000000,65535.000000
2451.838,0.000,0.000,45816.277340,24434.727379,0.000000,65535.000000,37932.680140,27631.856627,0.000000,65535.000000
2452.853,0.000,0.000,45816.277340,24434.727379,0.000000,65535.000000,37932.680140,27631.856627,0.000000,65535.000000
2453.875,0.000,0.000,45816.277340,24434.727379,0.000000,65535.000000,37932.680140,27631.856627,0.000000,65535.000000
2454.889,0.000,0.000,45816.277340,24434.727379,0.000000,65535.000000,37932.680140,27631.856627,0.000000,65535.000000
2455.891,0.000,0.000,45816.277340,24434.727379,0.000000,65535.000000,37932.680140,27631.856627,0.000000,65535.000000
2456.930,0.000,0.000,45816.277340,24434.727379,0.000000,65535.000000,37932.680140,27631.856627,0.000000,65535.000000
2457.946,0.000,0.000,45816.277340,24434.727379,0.000000,65535.000000,37932.680140,27631.856627,0.000000,65535.000000
2458.956,0.000,0.000,45816.277340,24434.727379,0.000000,65535.000000,37932.680140,27631.856627,0.000000,65535.000000
2459.974,0.000,0.000,45816.277340,24434.727379,0.000000,65535.000000,37932.680140,27631.856627,0.000000,65535.000000
2460.984,0.000,0.000,45816.277340,24434.727379,0.000000,65535.000000,37932.680140,27631.856627,0.000000,65535.000000
2461.996,0.000,0.000,45816.277340,24434.727379,0.000000,65535.000000,37932.680140,27631.856627,0.000000,65535.000000
2463.017,0.000,0.000,45816.277340,24434.727379,0.000000,65535.000000,37932.680140,27631.856627,0.000000,65535.000000
2464.033,0.000,0.000,45816.277340,24434.727379,0.000000,65535.000000,37932.680140,27631.856627,0.000000,65535.000000
2465.054,0.000,0.000,45816.277340,24434.727379,0.000000,65535.000000,37932.680140,27631.856627,0.000000,65535.000000
2466.068,0.000,0.000,45816.277340,24434.727379,0.000000,65535.000000,37932.680140,27631.856627,0.000000,65535.000000
2467.082,0.000,0.000,45816.277340,24434.727379,0.000000,65535.000000,37932.680140,27631.856627,0.000000,65535.000000
2468.095,0.000,0.000,45816.277340,24434.727379,0.000000,65535.000000,37932.680140,27631.856627,0.000000,65535.000000
2469.114,0.000,0.000,45816.277340,24434.727379,0.000000,65535.000000,37932.680140,27631.856627,0.000000,65535.000000
2470.134,0.000,0.000,45816.277340,24434.727379,0.000000,65535.000000,37932.680140,27631.856627,0.000000,65535.000000
2471.137,0.000,0.000,45816.277340,24434.727379,0.000000,65535.000000,37932.680140,27631.856627,0.000000,65535.000000
